#Acq. time (s)=	0.5
#Accumulations=	100
#Range (cm-¹)=	60...1900
#Windows=	1
#Auto scanning=	Off
#Autofocus=	Off
#AutoExposure=	Off
#Spike filter=	Multiple accum.
#Delay time (s)=	0
#Binning=	1
#Readout mode=	Signal
#DeNoise=	Off
#ICS correction=	Off
#Dark correction=	Off
#Inst. Process=	Off
#Detector Gain=	Best Dynamic Range
#Detector ADC=	45 kHz       
#Detector temperature (°C)=	-60.1
#Instrument=	XploRA Plus
#Detector=	Syncerity OE
#Objective=	x50_VIS_LWD
#Grating=	1200 (750nm)
#Filter=	10%
#Laser=	532nm_Edge
#Slit (µm)=	200 
#Hole (µm)=	300 
#Temperature=	0
#StageXY=	75x50mm Scan+
#StageZ=	Z motor
#X (µm)=	0
#Y (µm)=	0
#Z (µm)=	-110.7
#Full time(mm:ss)=	1:10
#Project=	
#Sample=	
#Site=	
#Title=	S4_P1_01_2026_03_06_18_53_34_532nm_Edge_1200 (750nm)_x50_VIS_LWD_0_5 s_100 acc_200 µm_300 µm_10%
#Remark=	
#Date=	06.03.2026 18:53
#Acquired=	06.03.2026 18:53:40
#AxisType[0]=Intens
#AxisUnit[0]=Cnt
#AxisType[1]=Spectr
#AxisUnit[1]=1/cm
60.5661	537.7100359002475
63.8185	372.3640600782933
67.0676	260.84551440713085
70.3177	212.3174249029912
73.5646	112.41323646984438
76.8103	54.2118975966041
80.057	-6.088744119469084
83.3005	-61.80146225865519
86.5428	-64.32647472419194
89.784	-50.631615356103794
93.0241	-40.989247725729
96.2631	16.986289785088957
99.5031	12.855248539570312
102.74	-14.429667959902872
105.975	0.25938147270562695
109.208	33.421520955599135
112.441	12.382771851562666
115.673	-22.23590220849428
118.905	5.775013975112415
122.135	-19.711845332401026
125.363	-7.1854183249001835
128.591	-20.72002304290845
131.816	17.916915431269217
135.041	0.19765777653856276
138.266	32.84558679489851
141.487	12.480916351389396
144.709	7.849955937842424
147.928	1.9523020616406939
151.148	24.549792945497984
154.365	38.800668452048285
157.583	78.29038702610569
160.797	64.20162385985259
164.011	79.60161129177482
167.225	81.21032838436099
170.436	40.96714616773147
173.646	31.84734098979561
176.855	22.44984481394272
180.063	7.8418921563804815
183.272	48.39337790779996
186.478	52.08102457503446
189.682	18.66747119789852
192.886	6.855079298231203
196.088	12.251400378219842
199.287	-13.298994248193594
202.488	-35.97855636492841
205.687	-10.279131093956494
208.885	-19.723836536986482
212.081	6.447176028126705
215.277	-15.9348211445797
218.47	-7.710895512919706
221.663	-7.01314781353517
224.854	-42.15147820555262
228.045	-14.796364736133114
231.235	-48.80837253707125
234.422	-41.30326080701025
237.611	-39.18595810149179
240.795	-43.67439904486662
243.979	-26.905356503734993
247.164	-4.15584607930532
250.346	-19.94404348195269
253.526	-4.05052278328867
256.706	-21.483201663553587
259.886	19.788964238012
263.063	-13.901799189205803
266.239	-0.005692247490173941
269.415	58.08017875505868
272.589	97.03193802954593
275.761	130.73309678693204
278.933	195.97674410726563
282.104	262.0362411089012
285.274	321.5244389373123
288.44	321.48906831396073
291.608	298.0858825710883
294.774	219.40079845371304
297.937	146.42350504241773
301.101	79.23529260698547
304.265	35.2937097416457
307.425	16.17133454822971
310.586	33.414994417644124
313.743	16.743786987691607
316.902	-16.218265815145145
320.058	-2.1574265038475744
323.214	17.067240806191137
326.368	-26.418692747515635
329.52	21.66650744628159
332.672	10.49698382654573
335.824	4.161842662902387
338.973	-0.10016906215638244
342.121	21.101473097822563
345.268	23.955153571939775
348.414	49.36243414179626
351.559	-13.506068628413175
354.703	-43.71415536538606
357.846	-28.753878416523833
360.986	-4.3117464037891295
364.126	-54.516719764134734
367.266	-4.17530935385372
370.404	10.676563636919354
373.54	13.596691959525117
376.676	-2.993735313995785
379.811	-13.128531631483952
382.943	-14.414692726015573
386.076	-6.769337699413768
389.206	8.887903260723874
392.337	1.8662144299522652
395.465	-38.49048889228925
398.592	-1.8510043211185803
401.72	-9.024261809193263
404.845	-2.422201345839312
407.968	17.451870741105836
411.091	86.35290462930493
414.212	153.7753032596496
417.333	153.33432475761697
420.452	139.08602638041407
423.571	84.17509531053918
426.688	66.38283982925225
429.804	25.74907881062586
432.919	-46.78376467192152
436.033	-32.05913645348983
439.146	-8.631252906697455
442.256	-12.697586422673112
445.367	19.053683322855704
448.477	-29.958049359864617
451.584	7.006514115086247
454.692	-12.753412728801095
457.796	-16.450389684066067
460.902	-14.873793584586792
464.005	-0.07928294655448553
467.106	-20.26883062633692
470.209	-4.248818233153315
473.308	-17.96673955811616
476.407	19.73311927302825
479.504	0.47848359267959495
482.6	-4.072471236186857
485.695	-7.139249344331574
488.79	54.52449523746304
491.883	112.00284345288378
494.975	161.98323737598707
498.066	131.37388784114205
501.156	117.48312789517877
504.245	101.47840276568422
507.333	38.04679425629024
510.418	35.88939696487341
513.503	7.38150170485028
516.588	6.265698485419989
519.67	12.743374814072467
522.753	-46.21644663850452
525.832	-32.84781045062914
528.911	-4.717250280791632
531.991	-35.80499219615194
535.067	-29.743589945767326
538.143	-48.43760120321576
541.219	-9.471325472812623
544.292	-59.00921631984738
547.365	6.366066340953694
550.436	-28.259304106738
553.507	-40.73436009730267
556.576	33.83654949758784
559.644	-16.609023099591923
562.711	-28.763316833384124
565.778	-4.990342964518732
568.843	37.22334040078158
571.905	34.887287105855194
574.968	33.95153882145587
578.03	53.88750123754289
581.089	11.483771590278138
584.149	67.35737074531244
587.206	30.102051591400595
590.264	54.228398562515395
593.319	10.736330430745056
596.373	13.290216203258751
599.428	20.548581518657556
602.479	19.499595836275148
605.53	-0.23295002311715507
608.58	22.98844894883041
611.629	31.691239838770798
614.679	77.79611913587132
617.725	80.83520887615214
620.769	100.05653393892271
623.814	92.94148421822456
626.857	96.96093097978337
629.9	40.739664379191254
632.942	32.46210637325703
635.982	13.73255147382406
639.02	58.76251712555495
642.058	3.584170144528798
645.094	21.47078875675834
648.13	-4.829541261079157
651.164	9.03508542706868
654.198	-21.896016017815782
657.23	-0.8168370521393626
660.26	-17.021540126170294
663.292	-35.44769238569006
666.32	-1.3426512220166842
669.348	21.656073294147063
672.374	6.897364050923443
675.4	5.035465210585244
678.424	-18.473614123969583
681.447	-54.54014386263725
684.47	-16.851343546738462
687.491	-8.667103128600047
690.51	-61.52978374124859
693.529	-74.05944942039423
696.547	-51.16402299478614
699.565	-75.18804390834293
702.579	-76.94678670362373
705.594	-57.50137648747341
708.607	4.533154951281176
711.62	34.41417161196841
714.63	66.44817890958302
717.64	96.89137087192148
720.648	87.5703571026238
723.657	80.34043138581
726.664	28.67136117904056
729.669	36.801487833125066
732.673	43.936519212645635
735.677	8.39270477079026
738.679	6.252572999411768
741.68	10.829759259434923
744.681	-6.104199704657731
747.678	17.78016905823597
750.676	3.7588053545491675
753.674	-22.026600115394558
756.668	14.079555403809536
759.663	22.42578020054998
762.658	1.6274215139546868
765.649	47.306785432806464
768.64	18.33406444653201
771.631	-49.50841030819538
774.619	6.465877284592352
777.607	11.749152331058667
780.593	-9.327903953644181
783.581	-9.264602223330257
786.565	31.510113843409727
789.549	-14.14138215150615
792.531	26.18722208490817
795.513	7.377537994730119
798.491	-1.6592587395693954
801.471	-10.763973154193991
804.449	16.907200200064835
807.427	-17.34736604397449
810.401	-17.584765978008363
813.377	4.582945795808428
816.349	-22.080342515401753
819.323	10.342135926103765
822.294	-4.398403172962389
825.265	12.074474492984336
828.234	7.178335281482305
831.202	52.142590879901945
834.168	70.99519913075756
837.136	55.36834168597079
840.101	8.85507455183506
843.065	-26.32085508782029
846.028	-8.331199822247982
848.989	-7.513171020293157
851.948	-28.778470717679284
854.908	20.985251031820553
857.867	-35.777653604762236
860.825	-9.628576601537588
863.78	-16.790327375995275
866.736	-46.797516552688194
869.689	-5.503524980450948
872.643	-29.204564891031623
875.594	13.357748711495788
878.546	-28.957409248169824
881.495	-4.637776690710325
884.443	20.61829664723018
887.391	31.60895777323367
890.337	7.233486383359377
893.284	-7.212768399635024
896.228	5.13175463406742
899.17	-13.004418035152412
902.112	26.089892568970754
905.054	40.37788543747547
907.994	24.848927908806672
910.934	109.85631725549956
913.87	10.401127596720471
916.808	-7.854482883364199
919.742	16.104615397290218
922.678	46.763678559853815
925.611	31.172262377716834
928.544	16.57594690591577
931.475	27.804349129983166
934.405	35.25885096231241
937.334	46.05827163960976
940.263	-17.825230330513477
943.19	-51.02779378928835
946.116	-1.330488212756336
949.041	-15.70712408528334
951.964	-55.5786171181835
954.887	-40.12236735394117
957.809	-57.32323770673338
960.73	-48.50665867793941
963.648	-59.239413168446845
966.567	-39.28868110335543
969.486	-95.9213705715706
972.401	-37.90421009486681
975.316	-1.8756299652695816
978.231	-24.745374903979155
981.144	-21.349060220465617
984.055	6.115476258705712
986.966	28.00586834071146
989.878	9.504975337048563
992.786	92.99354249197268
995.694	78.46498009498964
998.599	200.44235778607936
1001.5	289.16187946642367
1004.41	555.6248771642149
1007.31	1059.0661962895742
1010.22	1372.3815954511574
1013.12	1207.9052323720111
1016.02	862.2842661152567
1018.92	527.4236984383228
1021.82	333.7485506620096
1024.71	175.38501751505146
1027.61	88.23543820957639
1030.5	34.073052219806414
1033.4	8.460521942798096
1036.29	42.7874518308231
1039.18	-27.2433561136977
1042.07	-6.293263310426028
1044.96	-17.102511478930865
1047.85	64.69412093696155
1050.74	73.97356394313556
1053.62	39.69865498008221
1056.51	7.4850551940971854
1059.4	4.742827936223421
1062.28	8.61828055062233
1065.16	21.48686989939324
1068.04	3.5107893353174404
1070.92	-20.038739400808026
1073.8	26.258222370742715
1076.68	-99.45202788375036
1079.56	24.042893929708043
1082.43	190.68601253084398
1085.31	269.75232588381414
1088.18	466.1416916546459
1091.05	539.5281306611014
1093.92	515.4354561980153
1096.8	401.6434751243396
1099.67	250.21165442687607
1102.54	117.16464587151904
1105.4	23.33219000794861
1108.27	43.424745436816465
1111.13	119.70891310695833
1114	71.80633856240865
1116.86	112.63103019390428
1119.72	61.14598146064782
1122.59	63.14814492714231
1125.45	113.31054554289494
1128.3	94.73686008827235
1131.16	165.9406948618639
1134.02	207.12645801955887
1136.88	242.84207129657125
1139.73	267.64271786053314
1142.58	204.60557198446077
1145.44	167.83783341180424
1148.29	104.82386159914358
1151.14	60.63494099422178
1153.99	36.009771041927706
1156.84	-45.55591051429292
1159.69	15.349459907795335
1162.53	-26.393044153163828
1165.38	-35.364290686889944
1168.22	-23.258541326951217
1171.07	-21.92453092905089
1173.91	55.196049399156436
1176.75	-0.9582991671986747
1179.59	-85.21681644947375
1182.43	-37.16614377256292
1185.27	-9.65971770391161
1188.1	0.04494820119452925
1190.94	12.704847205063743
1193.78	-89.29539059760373
1196.61	23.0010833515139
1199.44	-11.024083754884941
1202.28	2.46719085198265
1205.11	35.804543063862184
1207.94	-6.8707176477923895
1210.76	5.305873500089092
1213.59	1.0980528285399487
1216.42	-14.765553433623609
1219.25	18.277945097684096
1222.07	64.554416970901
1224.89	23.350397444065038
1227.72	3.66789034313706
1230.54	38.8037521653705
1233.36	80.65825955362106
1236.18	-17.189340212344177
1239	1.619060875318155
1241.81	30.869841448957686
1244.63	-23.773468519661492
1247.45	-16.48763316946497
1250.26	20.35006428661518
1253.07	-13.255004147460113
1255.89	51.07776669028817
1258.7	-18.5289583302997
1261.51	-66.8199098828527
1264.32	-45.93516353822861
1267.12	-45.54251307012282
1269.93	-51.833383917941774
1272.74	-66.95611242959376
1275.54	-21.593379214726156
1278.35	-0.4535214827146774
1281.15	-32.95297281408057
1283.95	-53.94238868752609
1286.75	-26.550527945644262
1289.55	-29.31474420255472
1292.35	-73.60987233673632
1295.15	18.31004960680366
1297.95	9.637239031225363
1300.74	-1.1294646761321019
1303.54	12.49330624228378
1306.33	-20.502278345953982
1309.12	-20.069321820677487
1311.92	21.69346993730369
1314.71	37.67192451866913
1317.5	-7.200826266403055
1320.29	5.726868077202653
1323.07	76.71602489926363
1325.86	15.649215706574978
1328.65	58.94466534199455
1331.43	49.08677467988764
1334.21	83.10049934426661
1337	30.10447521918377
1339.78	6.235749295349706
1342.56	63.875505653459186
1345.34	20.565492960159645
1348.12	44.94666202148255
1350.9	28.344914494961813
1353.67	7.470230296632508
1356.45	35.47296177257431
1359.22	58.04167430758662
1362	52.82747796615695
1364.77	60.856956877806624
1367.54	-10.362401759537534
1370.31	34.584626548054985
1373.08	9.096370927137286
1375.85	-19.168217361731877
1378.61	12.185859378553687
1381.38	-42.26396121929611
1384.15	-45.44661127508698
1386.91	-19.109447723443736
1389.67	2.167341317082901
1392.44	24.909729666126623
1395.2	-19.847149343509045
1397.96	11.795818536113984
1400.72	41.824260225417675
1403.48	10.369474823031851
1406.23	-12.57214265840139
1408.99	-36.539035400535795
1411.75	-33.236149186492185
1414.5	-11.467694908984413
1417.25	-0.19233981564502756
1420.01	30.079073504440203
1422.76	61.71955609530687
1425.51	11.182947691148911
1428.26	45.662567478892925
1431	-27.792859897062044
1433.75	-0.2363146334173507
1436.5	26.531990037583455
1439.24	76.18760362665489
1441.99	48.11156482266597
1444.73	41.90889418493043
1447.47	11.018410516762742
1450.21	33.468494185681266
1452.95	40.77364632223089
1455.69	3.209636773559396
1458.43	-1.9117416495955695
1461.17	-19.004975510052645
1463.9	30.719052776703393
1466.64	-19.469602922507875
1469.37	-5.957287368771176
1472.11	-92.36155778837747
1474.84	-36.298522288441745
1477.57	-30.564647573969523
1480.3	5.797445284244532
1483.03	-70.11177917310124
1485.76	-43.59845540233073
1488.48	42.469047910986774
1491.21	52.81565230572778
1493.94	-60.86402873256884
1496.66	-82.12299152594551
1499.38	-19.645479188834543
1502.11	-67.30534675855961
1504.83	-26.518169135781136
1507.55	-38.11538919457962
1510.27	-10.866990499145686
1512.99	-45.6708379432539
1515.7	-21.398919487476633
1518.42	-11.878212008585251
1521.13	-11.183354579890874
1523.85	43.88655589415157
1526.56	31.42570591085405
1529.27	59.86932437550422
1531.98	84.42443019811071
1534.7	37.90560835420001
1537.4	-1.712786301090091
1540.11	-9.942029513482339
1542.82	-14.407454887128551
1545.53	-21.79496700178879
1548.23	42.3180428148753
1550.94	41.1071724994672
1553.64	26.614397931790336
1556.34	29.615459742663916
1559.04	26.058696884983874
1561.74	0.875579694516091
1564.44	-13.413273192943052
1567.14	-14.001566493081555
1569.84	28.592158794786883
1572.53	-52.78574148047028
1575.23	30.220565461905608
1577.92	11.756175956580591
1580.62	19.755346159194232
1583.31	3.602251121660629
1586	-58.70674026396773
1588.69	-36.79200390561709
1591.38	-29.081288314318954
1594.07	16.68616985517565
1596.76	-20.381890404533806
1599.45	-31.07522678912028
1602.13	-12.559653502835317
1604.81	-18.058176583615023
1607.5	-30.53728042626608
1610.18	-11.733973551224153
1612.86	-3.534081685748788
1615.54	-12.033837023551314
1618.22	39.365853196403805
1620.9	-20.408329028698972
1623.58	-27.171682840711583
1626.26	14.863311908893593
1628.93	1.2626584906211065
1631.61	-2.2387264085646166
1634.28	-10.155807226471552
1636.96	11.899321769366907
1639.63	27.166510448609188
1642.3	37.10875879841478
1644.97	37.9244280234343
1647.64	10.263296293573148
1650.3	80.28668332982852
1652.97	-46.95175480636317
1655.64	103.30639333886575
1658.3	71.06032445826895
1660.97	93.01504729681983
1663.63	57.60632696646917
1666.29	59.982428021723535
1668.95	96.87335656114283
1671.61	-19.831514239808712
1674.27	103.34303334215656
1676.93	17.785817469120047
1679.59	70.2858787062296
1682.24	73.7585385405082
1684.9	39.768459738306774
1687.55	31.451684884088536
1690.21	26.108916430394856
1692.86	-18.51436346142691
1695.51	16.92968193343677
1698.16	101.08229170849609
1700.81	23.051630985084557
1703.46	42.5183388647265
1706.11	-8.502402864000942
1708.75	33.75497791595444
1711.4	24.950902424569904
1714.04	23.944946564565726
1716.69	56.93836155029476
1719.33	-32.61395534444455
1721.97	-45.71254664440312
1724.61	-52.565084793903225
1727.25	-38.82165010162953
1729.89	-24.836606027831294
1732.53	-94.46940513709887
1735.17	-110.25384752464743
1737.8	-45.437246672935544
1740.44	-27.718271535196436
1743.07	-30.64329410599703
1745.71	-6.4649177114297345
1748.34	-15.76679493406482
1750.97	24.029016327105637
1753.6	-7.786907855659592
1756.23	63.53988298933882
1758.86	24.05608222677347
1761.48	-15.41955236681224
1764.11	32.21609951305254
1766.74	112.15653950174965
1769.36	-7.534767307674883
1771.98	55.03479616050072
1774.61	28.091158261569035
1777.23	33.67093226656243
1779.85	-0.8955659457697038
1782.47	10.318247649290697
1785.09	73.39843763772251
1787.71	106.44548047243279
1790.32	94.35289527632085
1792.94	43.56320083013361
1795.55	78.92298766862677
1798.17	54.07152153207653
1800.78	34.48742141377079
1803.39	-12.07541382422778
1806	-44.5427940348477
1808.61	-41.40360354676977
1811.22	-18.598384877762783
1813.83	-22.368709950114408
1816.44	-1.1768754190961772
1819.04	-23.200511058922984
1821.65	13.550774797530266
1824.25	-15.886318858790673
1826.86	-32.68211795100069
1829.46	-54.474423794285485
1832.06	-15.264841453255485
1834.66	29.526820252646303
1837.26	49.142119394153724
1839.86	17.281965559570835
1842.46	11.103339217199391
1845.06	-0.7899627562851492
1847.65	-12.786728233236772
1850.25	30.070419154477804
1852.84	42.16612511632047
1855.43	7.29429743222272
1858.02	-16.410258578017874
1860.62	22.269497192024573
1863.21	-37.55250083041028
1865.8	14.869347005036616
1868.38	-30.55548446456669
1870.97	16.81685562451503
1873.56	-29.704613082180458
1876.14	-39.08633696484094
1878.73	-2.6763673590667167
1881.31	2.9982341239947345
1883.9	-53.570852169556474
1886.48	-63.08533760191449
1889.06	-4.671894319488729
1891.64	77.4432152136028
1894.22	49.301662114387454
1896.79	16.61966021742228
1899.37	29.01939087940491
