#Acq. time (s)=	0.5
#Accumulations=	100
#Range (cm-¹)=	60...1900
#Windows=	1
#Auto scanning=	Off
#Autofocus=	Off
#AutoExposure=	Off
#Spike filter=	Multiple accum.
#Delay time (s)=	0
#Binning=	1
#Readout mode=	Signal
#DeNoise=	Off
#ICS correction=	Off
#Dark correction=	Off
#Inst. Process=	Off
#Detector Gain=	Best Dynamic Range
#Detector ADC=	45 kHz       
#Detector temperature (°C)=	-60.1
#Instrument=	XploRA Plus
#Detector=	Syncerity OE
#Objective=	x50_VIS_LWD
#Grating=	1200 (750nm)
#Filter=	10%
#Laser=	532nm_Edge
#Slit (µm)=	200 
#Hole (µm)=	300 
#Temperature=	0
#StageXY=	75x50mm Scan+
#StageZ=	Z motor
#X (µm)=	0
#Y (µm)=	0
#Z (µm)=	-110.7
#Full time(mm:ss)=	1:10
#Project=	
#Sample=	
#Site=	
#Title=	S4_P1_01_2026_03_06_18_53_34_532nm_Edge_1200 (750nm)_x50_VIS_LWD_0_5 s_100 acc_200 µm_300 µm_10%
#Remark=	
#Date=	06.03.2026 18:53
#Acquired=	06.03.2026 18:53:40
#AxisType[0]=Intens
#AxisUnit[0]=Cnt
#AxisType[1]=Spectr
#AxisUnit[1]=1/cm
60.5661	9075.32
63.8185	9728.21
67.0676	10308.4
70.3177	10821.2
73.5646	11159.3
76.8103	11430
80.057	11607.8
83.3005	11719.3
86.5428	11832.7
89.784	11928.9
93.0241	12002.8
96.2631	12118.7
99.5031	12174.6
102.74	12214.5
105.975	12305.5
109.208	12423.5
112.441	12493.3
115.673	12553.1
118.905	12666.8
122.135	12714.8
125.363	12797.3
128.591	12846.9
131.816	12947.3
135.041	12990
138.266	13085.1
141.487	13138
144.709	13208.6
147.928	13276
151.148	13369
154.365	13450.5
157.583	13554.5
160.797	13598.1
164.011	13666
167.225	13722
170.436	13727.7
173.646	13763.6
176.855	13792.4
180.063	13814.3
183.272	13885.8
186.478	13908.6
189.682	13898.8
192.886	13916.1
196.088	13956.9
199.287	13977.8
202.488	14005.3
205.687	14083.2
208.885	14127.8
212.081	14226.4
215.277	14287.9
218.47	14388.2
221.663	14480.5
224.854	14540.6
228.045	14662.7
231.235	14712.6
234.422	14792
237.611	14852.9
240.795	14896.5
243.979	14954
247.164	15006.2
250.346	15017.4
253.526	15057.3
256.706	15062.3
259.886	15130.3
263.063	15128.2
266.239	15182.2
269.415	15283.6
272.589	15369.9
275.761	15464.7
278.933	15597.1
282.104	15744.9
285.274	15893.7
288.44	15988.2
291.608	16063.8
294.774	16085.2
297.937	16108.9
301.101	16141.9
304.265	16195.7
307.425	16258.6
310.586	16341.9
313.743	16384.9
316.902	16405.4
320.058	16461
323.214	16517.3
326.368	16511.9
329.52	16597.2
332.672	16619.3
335.824	16649.4
338.973	16688.4
342.121	16759.7
345.268	16822.2
348.414	16908.8
351.559	16914.3
354.703	16955.3
357.846	17039.8
360.986	17124.3
364.126	17139.2
367.266	17257.6
370.404	17335
373.54	17395.9
376.676	17441.9
379.811	17487.8
382.943	17545.9
386.076	17607.9
389.206	17685.2
392.337	17739.4
395.465	17761.1
398.592	17860
401.72	17913.6
404.845	17984.1
407.968	18061.4
411.091	18185.8
414.212	18304
417.333	18356.3
420.452	18388.6
423.571	18388.7
426.688	18426.7
429.804	18442.7
432.919	18425.6
436.033	18498.6
439.146	18574.4
442.256	18618
445.367	18696.3
448.477	18695.8
451.584	18788.7
454.692	18828.5
457.796	18883.6
460.902	18938.2
464.005	19015.4
467.106	19065.5
470.209	19145.7
473.308	19194.5
476.407	19292.6
479.504	19335.6
482.6	19399.6
485.695	19453.1
488.79	19567.6
491.883	19665.1
494.975	19755.5
498.066	19761.8
501.156	19779.3
504.245	19799.1
507.333	19777.2
510.418	19823.7
513.503	19845.8
516.588	19898.6
519.67	19954.3
522.753	19952.1
525.832	20025.1
528.911	20116.7
531.991	20160.6
535.067	20247.9
538.143	20316.6
541.219	20433.1
544.292	20457.4
547.365	20597.3
550.436	20641
553.507	20701.4
556.576	20842.8
559.644	20852
562.711	20896.1
565.778	20981
568.843	21078.1
571.905	21127.7
574.968	21169.9
578.03	21222.5
581.089	21217.4
584.149	21308.9
587.206	21310.2
590.264	21373.2
593.319	21378.4
596.373	21423.9
599.428	21469.2
602.479	21506.7
605.53	21530.7
608.58	21608.8
611.629	21675.4
614.679	21783.4
617.725	21847.3
620.769	21926
623.814	21980.5
626.857	22044.6
629.9	22050.1
632.942	22099.3
635.982	22136.1
639.02	22226.5
642.058	22214.7
645.094	22271.5
648.13	22279.2
651.164	22327
654.198	22329.3
657.23	22379.4
660.26	22379.6
663.292	22369.6
666.32	22404.9
669.348	22427.7
672.374	22418.9
675.4	22414.7
678.424	22393.5
681.447	22364.7
684.47	22420.2
687.491	22457.5
690.51	22449
693.529	22486.9
696.547	22565.3
699.565	22600.8
702.579	22662.4
705.594	22751
708.607	22885.7
711.62	22988.3
714.63	23092.6
717.64	23186
720.648	23239.8
723.657	23297.3
726.664	23313.1
729.669	23390.6
732.673	23460.7
735.677	23485.7
738.679	23543
741.68	23601.6
744.681	23621
747.678	23681.1
750.676	23695
753.674	23688.9
756.668	23741.1
759.663	23766.9
762.658	23761.4
765.649	23822.1
768.64	23817.1
771.631	23770.6
774.619	23849.6
777.607	23881.9
780.593	23895
783.581	23929.1
786.565	24004.8
789.549	24001.7
792.531	24087.9
795.513	24118.1
798.491	24155
801.471	24193.3
804.449	24275.4
807.427	24287.5
810.401	24335.5
813.377	24392.3
816.349	24392.9
819.323	24448.1
822.294	24455.7
825.265	24492.2
828.234	24496.3
831.202	24551
834.168	24580.4
837.136	24577.5
840.101	24541.9
843.065	24522.7
846.028	24555.5
848.989	24567.6
851.948	24569
854.908	24648.5
857.867	24621.5
860.825	24685.2
863.78	24714.7
866.736	24724.5
869.689	24803.6
872.643	24821.8
875.594	24915.7
878.546	24928.2
881.495	25004.4
884.443	25086.6
887.391	25157.3
890.337	25195.3
893.284	25237.6
896.228	25303.8
899.17	25334.3
902.112	25414.1
905.054	25472.1
907.994	25487.6
910.934	25599.6
913.87	25516.2
916.808	25509.7
919.742	25537
922.678	25555.6
925.611	25523.4
928.544	25488
931.475	25480.9
934.405	25475.4
937.334	25477.3
940.263	25404.4
943.19	25359.3
946.116	25402.5
949.041	25388.3
951.964	25352.9
954.887	25392
957.809	25403.2
960.73	25447.6
963.648	25474.5
966.567	25535.8
969.486	25528.3
972.401	25637.9
975.316	25731.4
978.231	25772.6
981.144	25846.2
984.055	25950.4
986.966	26054.2
989.878	26118.2
992.786	26279.3
995.694	26339.7
998.599	26542
1001.5	26706.3
1004.41	27052
1007.31	27626.7
1010.22	28007.7
1013.12	27907
1016.02	27625.4
1018.92	27344.9
1021.82	27201.6
1024.71	27079.7
1027.61	27017
1030.5	26985.7
1033.4	26971.1
1036.29	27012.5
1039.18	26953.4
1042.07	26977.2
1044.96	26967
1047.85	27058.8
1050.74	27087.1
1053.62	27071
1056.51	27063.1
1059.4	27090.4
1062.28	27127.3
1065.16	27171.4
1068.04	27195.1
1070.92	27216.4
1073.8	27314.1
1076.68	27245.3
1079.56	27431
1082.43	27663.6
1085.31	27808.1
1088.18	28070
1091.05	28215
1093.92	28261.8
1096.8	28223.3
1099.67	28144
1102.54	28071.7
1105.4	28030.9
1108.27	28098.2
1111.13	28213.5
1114	28198.5
1116.86	28268.1
1119.72	28240.2
1122.59	28269.7
1125.45	28332.4
1128.3	28322.1
1131.16	28411.9
1134.02	28463.4
1136.88	28503.4
1139.73	28531
1142.58	28467.8
1145.44	28430.5
1148.29	28373.6
1151.14	28332.8
1153.99	28313.6
1156.84	28245.3
1159.69	28326.4
1162.53	28309.6
1165.38	28335.6
1168.22	28389.9
1171.07	28441.3
1173.91	28573.6
1176.75	28577
1179.59	28562.3
1182.43	28684.3
1185.27	28785.6
1188.1	28882
1190.94	28985.8
1193.78	28969.2
1196.61	29158.9
1199.44	29199.5
1202.28	29288
1205.11	29392.1
1207.94	29422
1210.76	29500.9
1213.59	29560.6
1216.42	29588.3
1219.25	29653.3
1222.07	29727.5
1224.89	29714.7
1227.72	29717.9
1230.54	29775.3
1233.36	29838.7
1236.18	29762.9
1239	29799.9
1241.81	29837.2
1244.63	29786.7
1247.45	29796
1250.26	29830.4
1253.07	29811.6
1255.89	29893.7
1258.7	29846
1261.51	29829.4
1264.32	29879.8
1267.12	29919.4
1269.93	29960.7
1272.74	30008.8
1275.54	30112.1
1278.35	30202.9
1281.15	30248.6
1283.95	30304.7
1286.75	30406.5
1289.55	30475
1292.35	30507.6
1295.15	30677
1297.95	30748.6
1300.74	30825.5
1303.54	30926.9
1306.33	30985
1309.12	31076.9
1311.92	31199.8
1314.71	31285.8
1317.5	31303.2
1320.29	31364.5
1323.07	31483.8
1325.86	31465.2
1328.65	31543.2
1331.43	31571.4
1334.21	31630.6
1337	31583.2
1339.78	31552.7
1342.56	31606.4
1345.34	31561.3
1348.12	31586.3
1350.9	31580.2
1353.67	31566.8
1356.45	31599.4
1359.22	31621.6
1362	31632.5
1364.77	31662.3
1367.54	31627.5
1370.31	31717.1
1373.08	31735.9
1375.85	31751
1378.61	31818.3
1381.38	31811.2
1384.15	31857.7
1386.91	31936.5
1389.67	32010.1
1392.44	32081.2
1395.2	32097
1397.96	32200.8
1400.72	32304.2
1403.48	32349.3
1406.23	32409.5
1408.99	32466.9
1411.75	32550.3
1414.5	32643.7
1417.25	32727.6
1420.01	32830.9
1422.76	32934
1425.51	32940.6
1428.26	33020.3
1431	32972.6
1433.75	33019.6
1436.5	33057
1439.24	33115.9
1441.99	33093.4
1444.73	33089.6
1447.47	33056.4
1450.21	33070.6
1452.95	33060.6
1455.69	33005.7
1458.43	32991.6
1461.17	32970.6
1463.9	33018.6
1466.64	32965.7
1469.37	32980.5
1472.11	32898.4
1474.84	32963.2
1477.57	32978.1
1480.3	33028.2
1483.03	32970.8
1485.76	33021.9
1488.48	33135.5
1491.21	33184.5
1493.94	33121.7
1496.66	33157.9
1499.38	33277.6
1502.11	33278.8
1504.83	33367.6
1507.55	33406.2
1510.27	33496
1512.99	33521.9
1515.7	33610.2
1518.42	33682.7
1521.13	33749.8
1523.85	33870.8
1526.56	33923.8
1529.27	34014.8
1531.98	34100.8
1534.7	34118.9
1537.4	34140.1
1540.11	34180.3
1542.82	34221.3
1545.53	34254.7
1548.23	34350.5
1550.94	34373.8
1553.64	34375
1556.34	34382.8
1559.04	34375.6
1561.74	34347.9
1564.44	34336
1567.14	34331
1569.84	34379.3
1572.53	34302.3
1575.23	34385.6
1577.92	34364.2
1580.62	34369.4
1583.31	34357.9
1586	34308.1
1588.69	34342.7
1591.38	34365.3
1594.07	34428.3
1596.76	34415.2
1599.45	34435.7
1602.13	34488.2
1604.81	34513.2
1607.5	34533.3
1610.18	34597.5
1612.86	34650.6
1615.54	34696.1
1618.22	34810.5
1620.9	34819.6
1623.58	34878.7
1626.26	34979.8
1628.93	35031.7
1631.61	35090
1634.28	35154.1
1636.96	35243.7
1639.63	35321.4
1642.3	35380.8
1644.97	35415.2
1647.64	35414.7
1650.3	35510.2
1652.97	35390.6
1655.64	35550.4
1658.3	35532
1660.97	35569
1663.63	35548
1666.29	35555.5
1668.95	35595.7
1671.61	35474.1
1674.27	35593.5
1676.93	35508.5
1679.59	35550.9
1682.24	35542.4
1684.9	35501.9
1687.55	35481.1
1690.21	35459.2
1692.86	35396.8
1695.51	35417.1
1698.16	35480.1
1700.81	35382.7
1703.46	35391.6
1706.11	35336.7
1708.75	35367
1711.4	35341
1714.04	35335.2
1716.69	35372.2
1719.33	35298.9
1721.97	35298.4
1724.61	35314
1727.25	35366.4
1729.89	35420.4
1732.53	35393.4
1735.17	35429
1737.8	35532.4
1740.44	35576.6
1743.07	35597.9
1745.71	35645.5
1748.34	35660.3
1750.97	35727.9
1753.6	35721.6
1756.23	35816.5
1758.86	35805.6
1761.48	35802.7
1764.11	35878.2
1766.74	35979.7
1769.36	35878
1771.98	35950.8
1774.61	35935.1
1777.23	35947.5
1779.85	35904.7
1782.47	35902.6
1785.09	35948.7
1787.71	35974.2
1790.32	35960.4
1792.94	35899.6
1795.55	35923
1798.17	35899.7
1800.78	35891.2
1803.39	35855.9
1806	35825.2
1808.61	35823.7
1811.22	35838.4
1813.83	35816.2
1816.44	35819.3
1819.04	35787.6
1821.65	35814.9
1824.25	35779.4
1826.86	35756.2
1829.46	35732.7
1832.06	35776.4
1834.66	35836.3
1837.26	35869.3
1839.86	35863.9
1842.46	35892.2
1845.06	35924.4
1847.65	35953.1
1850.25	36029.7
1852.84	36073.4
1855.43	36064.8
1858.02	36066.7
1860.62	36133.4
1863.21	36101.9
1865.8	36183.1
1868.38	36166.7
1870.97	36242.7
1873.56	36223.3
1876.14	36238
1878.73	36293.6
1881.31	36311.6
1883.9	36258.7
1886.48	36243
1889.06	36285.3
1891.64	36343.1
1894.22	36286.8
1896.79	36230.1
1899.37	36235.4
