#Acq. time (s)=	1
#Accumulations=	100
#Range (cm-¹)=	60...1900
#Windows=	1
#Auto scanning=	Off
#Autofocus=	Off
#AutoExposure=	Off
#Spike filter=	Multiple accum.
#Delay time (s)=	0
#Binning=	1
#Readout mode=	Signal
#DeNoise=	Off
#ICS correction=	Off
#Dark correction=	Off
#Inst. Process=	Off
#Detector Gain=	Best Dynamic Range
#Detector ADC=	45 kHz       
#Detector temperature (°C)=	-60.1
#Instrument=	XploRA Plus
#Detector=	Syncerity OE
#Objective=	x50_VIS_LWD
#Grating=	1200 (750nm)
#Filter=	1%
#Laser=	532nm_Edge
#Slit (µm)=	200 
#Hole (µm)=	300 
#Temperature=	0
#StageXY=	75x50mm Scan+
#StageZ=	Z motor
#X (µm)=	0
#Y (µm)=	0
#Z (µm)=	32.7
#Full time(mm:ss)=	1:56
#Project=	
#Sample=	
#Site=	
#Title=	white_light_green_01_2026_03_06_18_41_19_532nm_Edge_1200 (750nm)_x50_VIS_LWD_1 s_100 acc_200 µm_300 µm_1%
#Remark=	
#Date=	06.03.2026 18:41
#Acquired=	06.03.2026 18:41:25
#AxisType[0]=Intens
#AxisUnit[0]=Cnt
#AxisType[1]=Spectr
#AxisUnit[1]=1/cm
60.5661	3670.21
63.8185	3905.79
67.0676	4107.59
70.3177	4297.67
73.5646	4427.77
76.8103	4523.59
80.057	4588.47
83.3005	4616.15
86.5428	4645.83
89.784	4651.67
93.0241	4651.24
96.2631	4670.15
99.5031	4690.82
102.74	4690.19
105.975	4707.69
109.208	4723.97
112.441	4757.95
115.673	4744.03
118.905	4772.19
122.135	4784.86
125.363	4798.8
128.591	4804.86
131.816	4794.82
135.041	4819.79
138.266	4833.95
141.487	4838.25
144.709	4846.43
147.928	4841.71
151.148	4855.16
154.365	4882.59
157.583	4912.72
160.797	4917.95
164.011	4924.43
167.225	4909.22
170.436	4912.76
173.646	4918.42
176.855	4908.82
180.063	4910.43
183.272	4901.18
186.478	4922.78
189.682	4943.67
192.886	4933.54
196.088	4934.03
199.287	4921.99
202.488	4913.44
205.687	4929.24
208.885	4922.78
212.081	4942.9
215.277	4964.86
218.47	4995.28
221.663	5027.75
224.854	5040.72
228.045	5064.62
231.235	5060.7
234.422	5066.03
237.611	5097.14
240.795	5098.62
243.979	5101.34
247.164	5105.59
250.346	5091.44
253.526	5077.67
256.706	5070.43
259.886	5107.34
263.063	5100.76
266.239	5091
269.415	5092.25
272.589	5111.28
275.761	5107.39
278.933	5101.75
282.104	5118.7
285.274	5160.74
288.44	5183.79
291.608	5200.31
294.774	5215.26
297.937	5242.37
301.101	5256.68
304.265	5273.36
307.425	5286.62
310.586	5318.37
313.743	5333.34
316.902	5324.13
320.058	5321.1
323.214	5333.42
326.368	5317.35
329.52	5330.13
332.672	5336.27
335.824	5345.81
338.973	5334.92
342.121	5341.28
345.268	5342.39
348.414	5372.86
351.559	5383.3
354.703	5374.58
357.846	5400.21
360.986	5410.49
364.126	5430.62
367.266	5430.43
370.404	5453.57
373.54	5451.79
376.676	5450.84
379.811	5457.49
382.943	5482.88
386.076	5483.06
389.206	5493.16
392.337	5511.83
395.465	5508.05
398.592	5529.67
401.72	5537.61
404.845	5536.8
407.968	5536.15
411.091	5572.9
414.212	5571.5
417.333	5563.71
420.452	5574.29
423.571	5592.6
426.688	5589.28
429.804	5605.87
432.919	5586.92
436.033	5614.96
439.146	5615.95
442.256	5628.78
445.367	5647.18
448.477	5634.88
451.584	5655.4
454.692	5655.42
457.796	5657.79
460.902	5660.15
464.005	5671.67
467.106	5670.19
470.209	5703.97
473.308	5709.22
476.407	5733.58
479.504	5748.92
482.6	5754.15
485.695	5741.65
488.79	5738.23
491.883	5739.52
494.975	5768.03
498.066	5775.99
501.156	5768.33
504.245	5761.89
507.333	5762.43
510.418	5785.14
513.503	5796.53
516.588	5773.87
519.67	5783.36
522.753	5784.86
525.832	5826.52
528.911	5846.82
531.991	5842.7
535.067	5854.82
538.143	5857.73
541.219	5899.65
544.292	5889.57
547.365	5912.72
550.436	5937.18
553.507	5963.65
556.576	5980.92
559.644	5977.75
562.711	5979.36
565.778	5977.14
568.843	5997.87
571.905	6007.4
574.968	6011.06
578.03	6037.1
581.089	6032.17
584.149	6045.34
587.206	6012.46
590.264	6042.21
593.319	6048.03
596.373	6062.88
599.428	6052.15
602.479	6063.06
605.53	6072.66
608.58	6079.46
611.629	6108.39
614.679	6121.79
617.725	6143.3
620.769	6150.25
623.814	6128.11
626.857	6168.46
629.9	6177.12
632.942	6202.92
635.982	6228.39
639.02	6240.34
642.058	6232.86
645.094	6231.5
648.13	6248.88
651.164	6261.34
654.198	6275.42
657.23	6264.46
660.26	6268.72
663.292	6265.38
666.32	6258.56
669.348	6278.62
672.374	6284.13
675.4	6276.8
678.424	6266.82
681.447	6253.69
684.47	6266.17
687.491	6263.61
690.51	6263.2
693.529	6264.33
696.547	6318.07
699.565	6345.61
702.579	6368.45
705.594	6377.43
708.607	6392.94
711.62	6408.31
714.63	6421.87
717.64	6447.52
720.648	6447.93
723.657	6468.33
726.664	6503.04
729.669	6532.46
732.673	6547.89
735.677	6573.4
738.679	6578.66
741.68	6598.29
744.681	6601.95
747.678	6610.29
750.676	6617.47
753.674	6632.8
756.668	6626.9
759.663	6634.86
762.658	6627.91
765.649	6644.5
768.64	6655.2
771.631	6670.37
774.619	6676.33
777.607	6665.77
780.593	6668.37
783.581	6689.44
786.565	6701.81
789.549	6711.55
792.531	6752.01
795.513	6745.77
798.491	6751.99
801.471	6783.28
804.449	6805.93
807.427	6804.9
810.401	6820.31
813.377	6840.96
816.349	6836.9
819.323	6859.38
822.294	6870.45
825.265	6881.04
828.234	6867.34
831.202	6864.21
834.168	6895.4
837.136	6881.16
840.101	6888.5
843.065	6878.23
846.028	6904.21
848.989	6922.03
851.948	6907.69
854.908	6938.13
857.867	6923.06
860.825	6944.8
863.78	6969.26
866.736	6983.08
869.689	6978.39
872.643	6976.6
875.594	7027.1
878.546	7042.86
881.495	7071.32
884.443	7083.63
887.391	7086.23
890.337	7098.88
893.284	7117.5
896.228	7164.86
899.17	7168.41
902.112	7183.54
905.054	7214.05
907.994	7197.08
910.934	7227.75
913.87	7205.57
916.808	7222.9
919.742	7233.26
922.678	7231.85
925.611	7216.29
928.544	7207.97
931.475	7219.95
934.405	7213.67
937.334	7207.51
940.263	7190.9
943.19	7172.47
946.116	7190.17
949.041	7203.32
951.964	7202.58
954.887	7222.66
957.809	7202.46
960.73	7221.79
963.648	7232.33
966.567	7240.17
969.486	7251.42
972.401	7274.27
975.316	7296.51
978.231	7326.21
981.144	7352.33
984.055	7361.65
986.966	7371.42
989.878	7384.39
992.786	7423.83
995.694	7446.66
998.599	7499.22
1001.5	7514.7
1004.41	7516.74
1007.31	7552.07
1010.22	7560.74
1013.12	7577.2
1016.02	7575.57
1018.92	7613.08
1021.82	7639.63
1024.71	7641.14
1027.61	7653.71
1030.5	7650.8
1033.4	7647.67
1036.29	7649.69
1039.18	7648.33
1042.07	7667.87
1044.96	7648.49
1047.85	7648.39
1050.74	7638.52
1053.62	7636.03
1056.51	7648.23
1059.4	7681.83
1062.28	7686.41
1065.16	7718.43
1068.04	7705.61
1070.92	7708.88
1073.8	7726.5
1076.68	7706.96
1079.56	7747.28
1082.43	7793.61
1085.31	7771.34
1088.18	7818.25
1091.05	7851.6
1093.92	7880.86
1096.8	7886.62
1099.67	7899.38
1102.54	7916.49
1105.4	7916.88
1108.27	7940.21
1111.13	7968.78
1114	7955.85
1116.86	7982.64
1119.72	7981.97
1122.59	7995.75
1125.45	8000.72
1128.3	7991.85
1131.16	7996.96
1134.02	7990.86
1136.88	7989.77
1139.73	7999.02
1142.58	7991.48
1145.44	7985.36
1148.29	8006.92
1151.14	8005.42
1153.99	8010.17
1156.84	7988.41
1159.69	8007.34
1162.53	8004.37
1165.38	8017.06
1168.22	8006.09
1171.07	8030.09
1173.91	8072.96
1176.75	8096.31
1179.59	8103.26
1182.43	8129.79
1185.27	8134.46
1188.1	8169.97
1190.94	8202.94
1193.78	8191.3
1196.61	8237.5
1199.44	8265.97
1202.28	8272.84
1205.11	8315.57
1207.94	8337.02
1210.76	8361.77
1213.59	8366.29
1216.42	8362.13
1219.25	8372.94
1222.07	8384.68
1224.89	8379.04
1227.72	8380.92
1230.54	8425.75
1233.36	8427.91
1236.18	8410.17
1239	8381.73
1241.81	8395.83
1244.63	8400.38
1247.45	8418.09
1250.26	8424.13
1253.07	8416.74
1255.89	8409.85
1258.7	8379.81
1261.51	8394.76
1264.32	8403.14
1267.12	8422.13
1269.93	8430.69
1272.74	8457.42
1275.54	8500.58
1278.35	8508.27
1281.15	8496.01
1283.95	8516.52
1286.75	8514.45
1289.55	8530.88
1292.35	8574.78
1295.15	8647.79
1297.95	8638.76
1300.74	8646.19
1303.54	8670.27
1306.33	8656.88
1309.12	8698.05
1311.92	8723.08
1314.71	8786.82
1317.5	8771.14
1320.29	8799.51
1323.07	8797.99
1325.86	8781.91
1328.65	8800.58
1331.43	8797.75
1334.21	8832.39
1337	8808.66
1339.78	8804.48
1342.56	8808.42
1345.34	8786.55
1348.12	8824.35
1350.9	8807.26
1353.67	8780.66
1356.45	8775.53
1359.22	8798.01
1362	8782.52
1364.77	8796.25
1367.54	8789.79
1370.31	8817.38
1373.08	8852.78
1375.85	8844.25
1378.61	8844.98
1381.38	8861.3
1384.15	8864.45
1386.91	8898.21
1389.67	8913.06
1392.44	8936.58
1395.2	8947.12
1397.96	8940.9
1400.72	8960.21
1403.48	9002.6
1406.23	9040.88
1408.99	9075.47
1411.75	9097.43
1414.5	9117.53
1417.25	9121.16
1420.01	9136.54
1422.76	9175.85
1425.51	9196.31
1428.26	9207.85
1431	9202.58
1433.75	9221.89
1436.5	9232.41
1439.24	9247.28
1441.99	9237.68
1444.73	9242.62
1447.47	9226.19
1450.21	9215.29
1452.95	9201.37
1455.69	9207.18
1458.43	9231.12
1461.17	9224.96
1463.9	9244.29
1466.64	9217.83
1469.37	9214.21
1472.11	9205.58
1474.84	9221.87
1477.57	9218.72
1480.3	9225.99
1483.03	9227.1
1485.76	9262.09
1488.48	9276.47
1491.21	9269.59
1493.94	9260.17
1496.66	9287.44
1499.38	9325.16
1502.11	9332.76
1504.83	9358.19
1507.55	9374.9
1510.27	9388.7
1512.99	9400.19
1515.7	9420.11
1518.42	9445.02
1521.13	9468.68
1523.85	9487.52
1526.56	9493.69
1529.27	9509.48
1531.98	9542.76
1534.7	9582.43
1537.4	9596.54
1540.11	9606.62
1542.82	9593.58
1545.53	9606.74
1548.23	9638.31
1550.94	9649.46
1553.64	9636.46
1556.34	9646.05
1559.04	9644.13
1561.74	9642.17
1564.44	9641.85
1567.14	9644.17
1569.84	9649.41
1572.53	9630.46
1575.23	9632.31
1577.92	9622.33
1580.62	9625.85
1583.31	9655.26
1586	9651.14
1588.69	9661.49
1591.38	9659.65
1594.07	9648.8
1596.76	9636.21
1599.45	9649.32
1602.13	9685.54
1604.81	9700.53
1607.5	9680.8
1610.18	9739.53
1612.86	9740.76
1615.54	9754.23
1618.22	9760.53
1620.9	9766.43
1623.58	9802.88
1626.26	9821.59
1628.93	9846.52
1631.61	9873.95
1634.28	9882.39
1636.96	9919.18
1639.63	9958.35
1642.3	9948.4
1644.97	9940.7
1647.64	9967.87
1650.3	10002.5
1652.97	9968.54
1655.64	9989.4
1658.3	10010.4
1660.97	9999.54
1663.63	9988.05
1666.29	9986.35
1668.95	10010
1671.61	10013.2
1674.27	10051.6
1676.93	10021.1
1679.59	10026
1682.24	10016
1684.9	10001
1687.55	10001.1
1690.21	10005.4
1692.86	9991.89
1695.51	10002.8
1698.16	10031.4
1700.81	10022.4
1703.46	10019.6
1706.11	10000.4
1708.75	9994.41
1711.4	9981.55
1714.04	10011.4
1716.69	10025.9
1719.33	10013.7
1721.97	10034.3
1724.61	10043.8
1727.25	10048.9
1729.89	10087.9
1732.53	10099.2
1735.17	10101.4
1737.8	10135.3
1740.44	10157.3
1743.07	10176.7
1745.71	10182.5
1748.34	10150.5
1750.97	10175.8
1753.6	10234.2
1756.23	10254.2
1758.86	10232.1
1761.48	10220
1764.11	10252.8
1766.74	10291.5
1769.36	10283.5
1771.98	10311.1
1774.61	10344.5
1777.23	10315.4
1779.85	10312.5
1782.47	10313.2
1785.09	10318.9
1787.71	10311.7
1790.32	10325.6
1792.94	10313.9
1795.55	10342.5
1798.17	10357.2
1800.78	10370.5
1803.39	10347.8
1806	10343.8
1808.61	10363.8
1811.22	10378.6
1813.83	10393.4
1816.44	10389.6
1819.04	10372.5
1821.65	10376.3
1824.25	10373.8
1826.86	10395.2
1829.46	10382.6
1832.06	10391
1834.66	10418.7
1837.26	10446.7
1839.86	10448.1
1842.46	10463.4
1845.06	10474.6
1847.65	10485.7
1850.25	10494
1852.84	10523
1855.43	10559
1858.02	10575.6
1860.62	10596.6
1863.21	10607.9
1865.8	10599.3
1868.38	10610.4
1870.97	10631.9
1873.56	10644.2
1876.14	10653
1878.73	10696.6
1881.31	10701.6
1883.9	10706.9
1886.48	10702.3
1889.06	10705.3
1891.64	10709.6
1894.22	10693.8
1896.79	10692.5
1899.37	10710.4
