#Acq. time (s)=	0.5
#Accumulations=	100
#Range (cm-)=	60...1900
#Windows=	1
#Auto scanning=	Off
#Autofocus=	Off
#AutoExposure=	Off
#Spike filter=	Multiple accum.
#Delay time (s)=	0
#Binning=	1
#Readout mode=	Signal
#DeNoise=	Off
#ICS correction=	Off
#Dark correction=	Off
#Inst. Process=	Off
#Detector Gain=	Best Dynamic Range
#Detector ADC=	45 kHz       
#Detector temperature (C)=	-60.1
#Instrument=	XploRA Plus
#Detector=	Syncerity OE
#Objective=	x50_VIS_LWD
#Grating=	1200 (750nm)
#Filter=	10%
#Laser=	532nm_Edge
#Slit (m)=	200 
#Hole (m)=	300 
#Temperature=	0
#StageXY=	75x50mm Scan+
#StageZ=	Z motor
#X (m)=	0
#Y (m)=	0
#Z (m)=	-110.7
#Full time(mm:ss)=	1:10
#Project=	
#Sample=	
#Site=	
#Title=	S4_P1_01_2026_03_06_18_53_34_532nm_Edge_1200 (750nm)_x50_VIS_LWD_0_5 s_100 acc_200 m_300 m_10%
#Remark=	
#Date=	06.03.2026 18:53
#Acquired=	06.03.2026 18:53:40
#AxisType[0]=Intens
#AxisUnit[0]=Cnt
#AxisType[1]=Spectr
#AxisUnit[1]=1/cm
60.566100	427.255491
63.818500	351.123884
67.067600	267.147830
70.317700	181.757164
73.564600	101.399477
76.810300	33.110109
80.057000	-14.749052
83.300500	-36.519267
86.542800	-34.016906
89.784000	-5.419521
93.024100	14.165163
96.263100	23.998284
99.503100	12.208647
102.740000	8.889333
105.975000	-7.977488
109.208000	-5.531970
112.441000	-3.361212
115.673000	-7.273875
118.905000	-14.731892
122.135000	-22.522984
125.363000	-21.629188
128.591000	-13.972504
131.816000	-2.678076
135.041000	0.546686
138.266000	-5.139881
141.487000	-13.557281
144.709000	15.504467
147.928000	31.656400
151.148000	36.706660
154.365000	25.235657
157.583000	-1.382739
160.797000	0.216970
164.011000	18.219733
167.225000	30.542125
170.436000	41.151117
173.646000	33.180621
176.855000	38.995876
180.063000	62.780781
183.272000	50.209990
186.478000	14.320205
189.682000	-24.784905
192.886000	-60.024478
196.088000	-48.237834
199.287000	-20.483658
202.488000	-0.899516
205.687000	23.245310
208.885000	35.150621
212.081000	36.251258
215.277000	21.975117
218.470000	-10.113350
221.663000	-36.508619
224.854000	-43.026140
228.045000	-23.757975
231.235000	-7.867598
234.422000	-5.173487
237.611000	-12.844041
240.795000	-25.182489
243.979000	-31.594576
247.164000	-6.516468
250.346000	21.340787
253.526000	28.681781
256.706000	11.151213
259.886000	-17.322767
263.063000	-28.744761
266.239000	-18.850229
269.415000	17.160574
272.589000	71.472850
275.761000	139.819249
278.933000	207.910987
282.104000	267.840501
285.274000	292.871145
288.440000	282.726532
291.608000	244.662314
294.774000	193.755220
297.937000	131.321040
301.101000	78.287029
304.265000	43.311059
307.425000	15.856232
310.586000	-11.594982
313.743000	-23.163122
316.902000	-25.882953
320.058000	-14.071322
323.214000	5.120180
326.368000	12.194964
329.520000	0.103199
332.672000	-6.288918
335.824000	-10.704290
338.973000	2.479743
342.121000	28.007643
345.268000	30.532399
348.414000	17.191214
351.559000	-5.006072
354.703000	-13.194528
357.846000	-28.504944
360.986000	-24.738517
364.126000	-32.882306
367.266000	-24.478150
370.404000	-8.661884
373.540000	23.375400
376.676000	14.228403
379.811000	11.319203
382.943000	4.390676
386.076000	-4.711513
389.206000	-9.309152
392.337000	-8.394748
395.465000	-23.897474
398.592000	-30.486605
401.720000	-9.306376
404.845000	4.263521
407.968000	33.015198
411.091000	80.063723
414.212000	122.847648
417.333000	132.238935
420.452000	131.730628
423.571000	85.518530
426.688000	43.672628
429.804000	9.193032
432.919000	-0.084822
436.033000	-13.990024
439.146000	-14.084376
442.256000	-19.538385
445.367000	-19.412320
448.477000	-28.506277
451.584000	-23.053730
454.692000	-13.484360
457.796000	-2.726463
460.902000	19.232097
464.005000	27.403123
467.106000	24.246892
470.209000	15.738649
473.308000	-5.282526
476.407000	-30.162998
479.504000	-34.430938
482.600000	-16.047106
485.695000	41.429061
488.790000	113.035125
491.883000	151.260498
494.975000	153.979172
498.066000	138.620311
501.156000	116.991101
504.245000	98.350981
507.333000	58.542990
510.418000	26.593192
513.503000	17.582207
516.588000	34.620472
519.670000	35.794685
522.753000	13.777618
525.832000	-31.120700
528.911000	-51.817381
531.991000	-37.563963
535.067000	-15.246431
538.143000	-8.007020
541.219000	5.520944
544.292000	11.461207
547.365000	-7.237484
550.436000	-13.791976
553.507000	-30.185795
556.576000	-45.597976
559.644000	-23.892112
562.711000	7.268835
565.778000	22.560164
568.843000	47.054510
571.905000	48.445264
574.968000	21.669192
578.030000	-5.419082
581.089000	-2.699921
584.149000	10.181461
587.206000	26.972807
590.264000	17.662157
593.319000	2.183670
596.373000	-14.213436
599.428000	-14.787130
602.479000	-2.770819
605.530000	-5.801101
608.580000	-10.616355
611.629000	-7.287294
614.679000	-3.284521
617.725000	29.338713
620.769000	71.943481
623.814000	90.254998
626.857000	93.626470
629.900000	50.139725
632.942000	-1.476759
635.982000	-20.490565
639.020000	-10.619622
642.058000	5.291561
645.094000	23.131613
648.130000	2.502598
651.164000	-5.728876
654.198000	-14.227632
657.230000	-8.815108
660.260000	8.096407
663.292000	26.065576
666.320000	12.240987
669.348000	4.812560
672.374000	-7.542396
675.400000	-23.897685
678.424000	-21.528519
681.447000	-5.285981
684.470000	4.686202
687.491000	28.818169
690.510000	35.795368
693.529000	12.443569
696.547000	-38.926812
699.565000	-82.748191
702.579000	-98.042352
705.594000	-61.211252
708.607000	2.299116
711.620000	60.352193
714.630000	105.817048
717.640000	140.774883
720.648000	142.889979
723.657000	113.042307
726.664000	83.148361
729.669000	34.222112
732.673000	8.332801
735.677000	6.555718
738.679000	-0.952633
741.680000	1.021099
744.681000	20.663439
747.678000	7.340537
750.676000	4.335669
753.674000	1.776036
756.668000	1.929007
759.663000	20.330478
762.658000	43.112237
765.649000	11.424829
768.640000	-22.740391
771.631000	-40.775795
774.619000	-34.073609
777.607000	-13.802427
780.593000	21.732038
783.581000	24.679822
786.565000	3.573522
789.549000	-6.782402
792.531000	1.383595
795.513000	-5.505365
798.491000	-3.202532
801.471000	-0.534086
804.449000	-8.784666
807.427000	-10.752525
810.401000	3.060199
813.377000	7.272920
816.349000	1.776498
819.323000	-9.803285
822.294000	-17.022108
825.265000	3.328951
828.234000	23.685580
831.202000	55.209483
834.168000	61.768094
837.136000	52.863980
840.101000	32.571846
843.065000	10.931613
846.028000	-14.881931
848.989000	-22.851218
851.948000	-25.971575
854.908000	-7.947928
857.867000	2.882134
860.825000	-22.876098
863.780000	-31.245874
866.736000	-20.300552
869.689000	-2.456114
872.643000	10.984528
875.594000	-0.966020
878.546000	-37.041177
881.495000	-39.299374
884.443000	-8.158413
887.391000	31.843350
890.337000	39.547853
893.284000	16.824453
896.228000	-5.097902
899.170000	-23.643768
902.112000	-18.249068
905.054000	13.998464
907.994000	38.907525
910.934000	44.511385
913.870000	39.217323
916.808000	14.256396
919.742000	3.917441
922.678000	13.265599
925.611000	22.381568
928.544000	17.844069
931.475000	13.203290
934.405000	8.123793
937.334000	13.380099
940.263000	28.042159
943.190000	23.080488
946.116000	3.095954
949.041000	-29.876683
951.964000	-50.466148
954.887000	-52.959874
957.809000	-42.029655
960.730000	-18.037818
963.648000	-11.343866
966.567000	-19.283318
969.486000	-4.430349
972.401000	0.850841
975.316000	-14.078356
978.231000	-15.451358
981.144000	-6.920900
984.055000	21.551770
986.966000	78.501259
989.878000	118.197451
992.786000	127.517156
995.694000	122.155852
998.599000	166.872920
1001.500000	334.333001
1004.410000	677.419740
1007.310000	1039.456500
1010.220000	1273.685542
1013.120000	1235.358650
1016.020000	963.831654
1018.920000	616.023778
1021.820000	345.647151
1024.710000	168.460577
1027.610000	83.704697
1030.500000	49.452783
1033.400000	34.736459
1036.290000	16.638951
1039.180000	-11.354003
1042.070000	-20.995668
1044.960000	-0.033202
1047.850000	54.821688
1050.740000	99.300823
1053.620000	86.844264
1056.510000	46.884264
1059.400000	-13.256931
1062.280000	-48.997124
1065.160000	-61.319622
1068.040000	-45.521263
1070.920000	-40.029000
1073.800000	-22.663911
1076.680000	-17.799456
1079.560000	39.273312
1082.430000	144.345571
1085.310000	284.586791
1088.180000	392.837653
1091.050000	443.454126
1093.920000	407.523307
1096.800000	313.718487
1099.670000	196.698388
1102.540000	92.577502
1105.400000	23.848871
1108.270000	8.975907
1111.130000	24.079771
1114.000000	31.807825
1116.860000	20.047029
1119.720000	5.869727
1122.590000	-4.491832
1125.450000	10.563492
1128.300000	54.786261
1131.160000	116.134072
1134.020000	173.047745
1136.880000	211.329014
1139.730000	222.900609
1142.580000	188.966451
1145.440000	129.732844
1148.290000	62.765281
1151.140000	4.212857
1153.990000	-30.341455
1156.840000	-28.867048
1159.690000	-36.928274
1162.530000	-21.217579
1165.380000	-5.022630
1168.220000	14.630868
1171.070000	22.649714
1173.910000	-1.249275
1176.750000	-51.452847
1179.590000	-60.766946
1182.430000	-51.044321
1185.270000	-20.541710
1188.100000	0.783872
1190.940000	15.336550
1193.780000	5.055750
1196.610000	17.912269
1199.440000	28.544172
1202.280000	21.222576
1205.110000	-2.919779
1207.940000	-13.946886
1210.760000	-27.176980
1213.590000	-11.713063
1216.420000	22.377816
1219.250000	52.065627
1222.070000	73.375381
1224.890000	59.590380
1227.720000	41.092362
1230.540000	3.657263
1233.360000	2.079468
1236.180000	31.054734
1239.000000	64.981914
1241.810000	54.232616
1244.630000	31.398466
1247.450000	-27.839405
1250.260000	-41.743455
1253.070000	-5.183079
1255.890000	26.592389
1258.700000	45.438365
1261.510000	43.079640
1264.320000	18.502684
1267.120000	-3.056276
1269.930000	-25.911131
1272.740000	-56.631183
1275.540000	-54.011037
1278.350000	-48.509653
1281.150000	-7.468487
1283.950000	51.332547
1286.750000	68.395521
1289.550000	33.207159
1292.350000	-3.303042
1295.150000	-42.737160
1297.950000	-50.501290
1300.740000	1.917549
1303.540000	43.020892
1306.330000	68.427874
1309.120000	55.910016
1311.920000	34.153812
1314.710000	-18.849037
1317.500000	-30.315677
1320.290000	-22.487054
1323.070000	19.178049
1325.860000	51.350178
1328.650000	70.550745
1331.430000	56.499348
1334.210000	36.294822
1337.000000	18.080703
1339.780000	17.758139
1342.560000	9.657164
1345.340000	-13.846092
1348.120000	-23.520777
1350.900000	-15.518040
1353.670000	-3.213067
1356.450000	33.705078
1359.220000	45.569647
1362.000000	38.841607
1364.770000	38.675283
1367.540000	22.555035
1370.310000	-17.181322
1373.080000	-24.123993
1375.850000	-30.703514
1378.610000	-23.886226
1381.380000	-9.939378
1384.150000	-15.063291
1386.910000	-20.856775
1389.670000	-25.393273
1392.440000	-19.904533
1395.200000	25.347296
1397.960000	60.184917
1400.720000	75.992607
1403.480000	51.723425
1406.230000	-13.910422
1408.990000	-63.276394
1411.750000	-61.495955
1414.500000	-21.825819
1417.250000	33.134245
1420.010000	55.005640
1422.760000	63.318396
1425.510000	47.771596
1428.260000	25.309125
1431.000000	15.061610
1433.750000	15.496305
1436.500000	11.419967
1439.240000	16.935949
1441.990000	18.099829
1444.730000	24.682083
1447.470000	50.870703
1450.210000	77.156949
1452.950000	75.538357
1455.690000	45.231575
1458.430000	-4.757109
1461.170000	-41.105558
1463.900000	-30.289447
1466.640000	-15.434151
1469.370000	-13.522851
1472.110000	-12.139364
1474.840000	-2.449699
1477.570000	6.289907
1480.300000	0.198619
1483.030000	-20.754778
1485.760000	-20.263945
1488.480000	-4.283856
1491.210000	19.419046
1493.940000	31.677650
1496.660000	5.692952
1499.380000	-22.190908
1502.110000	-36.221720
1504.830000	-32.101618
1507.550000	-30.523007
1510.270000	-16.882258
1512.990000	-5.954321
1515.700000	-3.943664
1518.420000	-3.498413
1521.130000	12.500827
1523.850000	40.923210
1526.560000	84.271614
1529.270000	95.805297
1531.980000	63.819726
1534.700000	11.360499
1537.400000	-21.360899
1540.110000	-20.844305
1542.820000	9.395471
1545.530000	23.992454
1548.230000	33.678197
1550.940000	27.010312
1553.640000	30.778516
1556.340000	28.279772
1559.040000	19.415407
1561.740000	-4.999940
1564.440000	-11.557460
1567.140000	-24.025777
1569.840000	-12.753094
1572.530000	11.971834
1575.230000	48.002389
1577.920000	54.014692
1580.620000	32.797642
1583.310000	-21.817222
1586.000000	-69.435976
1588.690000	-74.840726
1591.380000	-29.809291
1594.070000	21.346443
1596.760000	46.335739
1599.450000	28.912067
1602.130000	12.489792
1604.810000	-16.434678
1607.500000	-30.870074
1610.180000	-41.178801
1612.860000	-31.683848
1615.540000	-12.986393
1618.220000	19.401724
1620.900000	29.545444
1623.580000	30.942375
1626.260000	3.439281
1628.930000	-1.076220
1631.610000	3.591728
1634.280000	-21.492899
1636.960000	-25.937330
1639.630000	1.088614
1642.300000	15.517061
1644.970000	31.259996
1647.640000	20.867698
1650.300000	9.844157
1652.970000	-6.454457
1655.640000	13.213220
1658.300000	33.809038
1660.970000	59.951696
1663.630000	78.052377
1666.290000	79.762778
1668.950000	36.136964
1671.610000	-10.239020
1674.270000	-41.218564
1676.930000	-35.494256
1679.590000	5.843728
1682.240000	32.179139
1684.900000	44.569900
1687.550000	38.577603
1690.210000	25.903175
1692.860000	18.418480
1695.510000	0.960127
1698.160000	-13.069019
1700.810000	-26.673902
1703.460000	-20.995850
1706.110000	17.456934
1708.750000	50.446530
1711.400000	59.355402
1714.040000	53.804783
1716.690000	20.778441
1719.330000	-13.949763
1721.970000	-12.413799
1724.610000	-14.838318
1727.250000	-24.378638
1729.890000	-28.115489
1732.530000	-33.834743
1735.170000	-38.406670
1737.800000	-32.548692
1740.440000	-32.635909
1743.070000	-15.784125
1745.710000	40.022446
1748.340000	62.253127
1750.970000	58.198209
1753.600000	34.187825
1756.230000	15.952369
1758.860000	37.543709
1761.480000	96.316888
1764.110000	99.643225
1766.740000	86.840307
1769.360000	33.696273
1771.980000	5.152196
1774.610000	-9.145855
1777.230000	-2.719936
1779.850000	11.176263
1782.470000	60.173263
1785.090000	77.787674
1787.710000	106.978836
1790.320000	113.540492
1792.940000	87.875864
1795.550000	36.432454
1798.170000	9.206205
1800.780000	-0.962613
1803.390000	0.453004
1806.000000	7.201022
1808.610000	-8.877778
1811.220000	-40.935150
1813.830000	-53.423131
1816.440000	-36.020236
1819.040000	-4.000238
1821.650000	12.586768
1824.250000	3.604914
1826.860000	-5.159433
1829.460000	-5.071022
1832.060000	1.460635
1834.660000	14.193267
1837.260000	5.924112
1839.860000	-2.580853
1842.460000	-3.196843
1845.060000	24.002273
1847.650000	59.289559
1850.250000	71.472247
1852.840000	50.107458
1855.430000	19.083999
1858.020000	-40.602471
1860.620000	-45.508346
1863.210000	-21.263277
1865.800000	11.772389
1868.380000	30.451415
1870.970000	48.898015
1873.560000	19.747434
1876.140000	9.469797
1878.730000	-19.277961
1881.310000	-41.944385
1883.900000	-56.940939
1886.480000	-36.561590
1889.060000	-3.512227
1891.640000	37.531313
1894.220000	57.258794
1896.790000	44.329514
1899.370000	-15.486943
