#Acq. time (s)=	20
#Accumulations=	4
#Range (cm-¹)=	60...4000
#Windows=	2
#Auto scanning=	Off
#Autofocus=	Off
#AutoExposure=	Off
#Spike filter=	Multiple accum.
#Delay time (s)=	0
#Binning=	1
#Readout mode=	Signal
#DeNoise=	Off
#ICS correction=	Off
#Dark correction=	Off
#Inst. Process=	Off
#Detector Gain=	Best Dynamic Range
#Detector ADC=	45 kHz       
#Detector temperature (°C)=	-60.1
#Instrument=	XploRA Plus
#Detector=	Syncerity OE
#Objective=	x50_VIS_LWD
#Grating=	1200 (750nm)
#Filter=	50%
#Laser=	532nm_Edge
#Slit (µm)=	100 
#Hole (µm)=	300 
#Temperature=	0
#StageXY=	75x50mm Scan+
#StageZ=	Z motor
#X (µm)=	0
#Y (µm)=	0
#Z (µm)=	-0.2
#Full time(mm:ss)=	3:03
#Project=	
#Sample=	
#Site=	
#Title=	aqua_15_16_14_2026_04_01_4_20 s_532nm_Edge_1200 (750nm)_x50_VIS_LWD_100 µm_300 µm_50%
#Remark=	
#Date=	01.04.2026 15:16
#Acquired=	01.04.2026 15:16:48
#AxisType[0]=Intens
#AxisUnit[0]=Cnt
#AxisType[1]=Spectr
#AxisUnit[1]=1/cm
62.8738	1431.67
66.1253	1393
69.3736	1452.33
72.6208	1368.33
75.869	1373.67
79.1139	1407.67
82.3577	1423
85.6003	1385
88.844	1372.33
92.0844	1357.67
95.3237	1332.33
98.5619	1313.67
101.799	1241
105.035	1250.33
108.27	1273.67
111.503	1276.33
114.736	1323.67
117.967	1361
121.196	1418.33
124.425	1420.33
127.653	1480.33
130.88	1522.33
134.104	1623.67
137.328	1692.33
140.552	1709
143.773	1754.33
146.994	1702.33
150.212	1558.33
153.431	1461.67
156.647	1367.67
159.862	1282.33
163.078	1252.33
166.291	1250.33
169.502	1281.67
172.713	1291.67
175.924	1297
179.132	1336.33
182.339	1378.33
185.545	1389.67
188.75	1418.33
191.954	1439
195.157	1430.33
198.358	1406.33
201.559	1338.33
204.758	1369
207.954	1345.67
211.152	1331.67
214.348	1352.33
217.543	1318.33
220.734	1293.67
223.927	1281
227.117	1274.33
230.307	1290.33
233.495	1270.33
236.683	1261.67
239.868	1271
243.055	1255
246.238	1278.33
249.42	1273
252.603	1286.33
255.782	1271.67
258.961	1239.67
262.139	1184.33
265.315	1126.33
268.49	1095.67
271.665	1076.33
274.838	1119
278.01	1100.33
281.181	1147
284.351	1178.33
287.52	1245.67
290.688	1313.67
293.852	1339
297.018	1374.33
300.183	1340.33
303.344	1295.67
306.506	1299
309.665	1346.33
312.826	1426.33
315.983	1608.33
319.141	1987.67
322.296	2483
325.45	2633
328.604	2404.33
331.756	1980.33
334.907	1432.33
338.056	1157.67
341.205	1042.33
344.352	1009
347.498	998.333
350.643	989.667
353.788	966.333
356.931	1007
360.073	995
363.214	1013.67
366.353	985.667
369.49	988.333
372.628	1007.67
375.765	1029
378.898	1079
382.033	1151
385.164	1249.67
388.296	1405.67
391.426	1710.33
394.556	2245.67
397.683	2737
400.809	2866.33
403.936	2607
407.06	2118.33
410.183	1633.67
413.305	1390.33
416.426	1337.67
419.545	1363.67
422.664	1419.67
425.781	1418.33
428.898	1368.33
432.013	1253.67
435.128	1179
438.239	1170.33
441.351	1263
444.463	1393
447.571	1471.67
450.68	1442.33
453.786	1349.67
456.893	1247
459.997	1126.33
463.102	1037
466.204	1026.33
469.305	1002.33
472.406	976.333
475.505	977.667
478.603	988.333
481.699	961.667
484.795	997.667
487.889	976.333
490.983	983
494.075	950.333
497.166	987
500.257	993.667
503.346	975
506.434	981
509.519	1001.67
512.606	1057
515.691	1056.33
518.773	1139.67
521.856	1214.33
524.936	1387
528.017	1501
531.094	1536.33
534.171	1486.33
537.247	1315.67
540.324	1189
543.398	1127
546.47	1030.33
549.542	1001
552.613	956.333
555.682	955
558.751	955.667
561.818	965
564.885	1005
567.95	1015.67
571.013	1027.67
574.076	1059.67
577.138	1087.67
580.198	1136.33
583.258	1169.67
586.315	1159
589.374	1152.33
592.429	1087
595.485	1071
598.538	1048.33
601.59	1046.33
604.643	1025.67
607.693	1037.67
610.743	1005.67
613.791	1024.33
616.838	1012.33
619.884	1067
622.929	1095.67
625.973	1118.33
629.013	1128.33
632.055	1051
635.096	1020.33
638.136	997
641.173	979.667
644.211	1013.67
647.246	1011
650.282	993.667
653.314	1027.67
656.348	1020.33
659.379	1039.67
662.409	1057
665.437	1134.33
668.465	1237
671.494	1434.33
674.52	1739
677.544	2309
680.568	3768.33
683.589	6271.67
686.61	8120.33
689.631	8383.67
692.651	7095
695.669	4809.67
698.685	2992.33
701.702	2133
704.715	1684.33
707.73	1494.33
710.742	1330.33
713.754	1240.33
716.764	1169
719.772	1109.67
722.78	1062.33
725.789	1081
728.794	1039
731.799	1020.33
734.802	1003.67
737.805	1017
740.807	1005
743.807	1019
746.805	1017.67
749.804	991
752.801	1038.33
755.796	1015.67
758.792	1032.33
761.786	1065.67
764.778	1123.67
767.769	1191
770.76	1209.67
773.749	1216.33
776.737	1195.67
779.725	1129
782.711	1079
785.696	1047.67
788.68	1044.33
791.662	995
794.644	970.333
797.625	990.333
800.605	977
803.582	957
806.559	965.667
809.536	964.333
812.51	950.333
815.485	972.333
818.457	949.667
821.43	933
824.4	956.333
827.369	945.667
830.339	922.333
833.306	917
836.272	944.333
839.237	927.667
842.201	949.667
845.164	913
848.126	931
851.087	939
854.047	927
857.007	923
859.963	943.667
862.92	954.333
865.876	936.333
868.83	945
871.784	939.667
874.735	940.333
877.686	931
880.637	934.333
883.586	937.667
886.533	949
889.48	953
892.425	979
895.37	959
898.313	985.667
901.256	969.667
904.198	1003.67
907.138	1037
910.078	1093
913.015	1115
915.953	1163.67
918.888	1185.67
921.824	1183.67
924.757	1155
927.691	1106.33
930.622	1063.67
933.552	1030.33
936.481	967
939.411	973.667
942.338	973
945.264	939
948.19	953.667
951.114	952.333
954.035	945
956.958	941
959.879	932.333
962.8	918.333
965.717	929.667
968.636	915
971.552	961
974.468	959.667
977.382	998.333
980.295	962.333
983.209	999.667
986.12	1049
989.03	1064.33
991.939	1117
994.847	1162.33
997.754	1295
1000.66	1451
1003.57	1609.67
1006.47	1833
1009.37	2078.33
1012.27	2291.67
1015.17	2356.33
1018.07	2260.33
1020.97	2002.33
1023.87	1763
1026.77	1558.33
1029.66	1436.33
1032.56	1369.67
1035.45	1357.67
1038.34	1295
1041.23	1309
1044.12	1358.33
1047.01	1409.67
1049.9	1515.67
1052.78	1707.67
1055.67	1933
1058.56	2381.67
1061.44	3025.67
1064.32	3977.67
1067.2	4872.12
1070.08	5529.9
1072.96	5585.69
1075.84	5118.14
1078.72	4317.93
1081.6	3542.38
1084.47	2866.16
1087.35	2407.95
1090.22	2089.07
1093.09	1838.18
1095.96	1610.64
1098.83	1501.09
1101.7	1373.54
1104.57	1313.99
1107.43	1240.44
1110.3	1216.23
1113.16	1170.01
1116.03	1167.8
1118.89	1131.58
1121.75	1112.03
1124.61	1091.15
1127.47	1084.94
1130.33	1086.72
1133.19	1119.84
1136.04	1080.96
1138.9	1102.74
1141.75	1089.86
1144.61	1093.65
1147.46	1064.77
1150.31	1063.22
1153.16	1019.67
1156.01	986.122
1158.86	955.24
1161.7	951.025
1164.55	926.81
1167.39	912.595
1170.24	933.047
1173.08	929.499
1175.92	933.284
1178.76	947.069
1181.6	960.854
1184.44	972.639
1187.28	971.091
1190.12	975.542
1192.95	981.327
1195.79	979.112
1198.62	954.231
1201.45	991.349
1204.28	971.134
1207.11	968.253
1209.94	953.371
1212.77	967.156
1215.6	997.608
1218.42	990.726
1221.25	996.511
1224.07	1032.96
1226.9	1051.41
1229.72	1085.87
1232.54	1104.32
1235.36	1147.44
1238.18	1180.55
1241	1229.01
1243.81	1256.79
1246.63	1193.91
1249.44	1144.36
1252.26	1047.48
1255.07	997.265
1257.88	979.05
1260.69	958.169
1263.5	907.287
1266.31	921.739
1269.12	898.191
1271.92	929.976
1274.73	940.427
1277.53	912.879
1280.34	926.664
1283.14	900.449
1285.94	939.568
1288.74	907.353
1291.54	925.138
1294.34	907.589
1297.14	918.708
1299.93	934.493
1302.73	915.611
1305.52	919.396
1308.31	909.848
1311.11	912.3
1313.9	920.751
1316.69	883.203
1319.48	922.988
1322.26	926.773
1325.05	907.892
1327.84	907.01
1330.62	924.128
1333.41	907.247
1336.19	945.032
1338.97	915.484
1341.75	911.935
1344.53	936.387
1347.31	908.839
1350.09	941.29
1352.87	916.409
1355.64	916.194
1358.42	945.312
1361.19	929.097
1363.96	940.882
1366.74	950.667
1369.51	913.786
1372.28	907.571
1375.04	921.356
1377.81	923.808
1380.58	931.593
1383.34	924.711
1386.11	913.163
1388.87	916.948
1391.63	933.4
1394.4	905.185
1397.16	911.636
1399.92	922.755
1402.67	917.873
1405.43	906.991
1408.19	910.777
1410.95	941.228
1413.7	917.68
1416.45	920.798
1419.21	946.583
1421.96	927.035
1424.71	930.82
1427.46	919.272
1430.21	923.724
1432.95	906.842
1435.7	921.294
1438.45	937.745
1441.19	934.864
1443.93	940.649
1446.68	939.767
1449.42	931.552
1452.16	921.337
1454.9	935.122
1457.64	916.907
1460.37	939.359
1463.11	911.811
1465.85	941.596
1468.58	937.381
1471.31	936.499
1474.05	922.951
1476.78	922.07
1479.51	912.521
1482.24	930.306
1484.97	943.425
1487.69	931.21
1490.42	914.328
1493.15	939.446
1495.87	957.232
1498.59	917.017
1501.32	946.135
1504.04	919.253
1506.76	925.705
1509.48	928.823
1512.2	945.275
1514.91	943.727
1517.63	936.845
1520.35	951.297
1523.06	951.749
1525.77	945.534
1528.49	951.986
1531.2	955.104
1533.91	937.556
1536.62	942.674
1539.33	978.459
1542.04	955.577
1544.74	956.696
1547.45	949.814
1550.15	953.599
1552.85	958.051
1555.56	960.503
1558.26	970.954
1560.96	990.073
1563.66	969.191
1566.36	952.976
1569.06	954.095
1571.75	941.88
1574.45	968.331
1577.14	954.783
1579.84	957.235
1582.53	983.687
1585.22	957.472
1587.91	954.59
1590.6	939.708
1593.29	958.827
1595.98	949.945
1598.67	947.064
1601.35	962.849
1604.04	975.3
1606.72	950.419
1609.4	974.204
1612.09	953.989
1614.77	957.774
1617.45	976.226
1620.13	978.011
1622.8	959.796
1625.48	960.247
1628.16	975.366
1630.83	984.484
1633.51	980.936
1636.18	972.721
1638.85	1000.51
1641.52	982.958
1644.19	973.409
1646.86	958.528
1649.53	967.646
1652.2	973.431
1654.86	950.55
1657.53	966.335
1660.2	978.12
1662.86	976.571
1665.52	937.023
1668.18	958.142
1670.84	979.26
1673.5	949.712
1676.16	978.83
1678.82	961.948
1681.47	947.067
1684.13	967.519
1686.79	955.304
1689.44	973.755
1692.09	954.874
1694.74	964.659
1697.39	959.777
1700.04	946.896
1702.69	938.681
1705.34	973.132
1707.99	956.917
1710.64	963.369
1713.28	962.487
1715.92	959.606
1718.57	945.391
1721.21	957.843
1723.85	940.961
1726.49	945.413
1729.13	955.865
1731.77	982.316
1734.41	944.768
1737.04	974.553
1739.68	976.338
1742.31	969.456
1744.94	963.908
1747.58	945.693
1750.21	963.478
1752.84	985.263
1755.47	975.048
1758.1	1005.5
1760.73	972.618
1763.35	971.737
1765.98	986.855
1768.6	979.307
1771.23	984.425
1773.85	956.21
1776.47	947.329
1779.09	966.447
1781.71	983.566
1784.33	994.017
1786.95	983.136
1789.57	976.254
1792.18	962.706
1794.8	954.491
1797.41	947.609
1800.03	959.394
1802.64	969.846
1805.25	955.631
1807.86	967.416
1810.47	957.201
1813.08	959.653
1815.69	941.438
1818.29	943.223
1820.9	937.008
1823.5	950.793
1826.11	947.245
1828.71	944.363
1831.31	976.148
1833.91	960.6
1836.51	953.718
1839.11	946.17
1841.71	954.622
1844.31	934.407
1846.9	955.525
1849.5	951.31
1852.09	953.095
1854.69	942.214
1857.28	960.665
1859.87	970.451
1862.46	937.569
1865.05	948.687
1867.64	953.806
1870.23	956.924
1872.81	935.376
1875.4	945.828
1877.98	950.946
1880.57	950.731
1883.15	970.516
1885.73	963.634
1888.31	947.419
1890.89	951.871
1893.47	978.323
1896.05	963.441
1898.63	960.56
1901.2	970.345
1903.78	938.796
1906.35	953.915
1908.93	933.7
1911.5	939.485
1914.07	942.603
1916.64	950.388
1919.21	940.173
1921.78	954.625
1924.35	947.077
1926.92	931.529
1929.48	965.314
1932.05	943.765
1934.61	952.884
1937.17	951.335
1939.74	949.12
1942.3	936.239
1944.86	929.357
1947.42	961.809
1949.98	958.927
1952.53	942.712
1955.09	927.831
1957.65	946.283
1960.2	950.734
1962.76	956.519
1965.31	934.304
1967.86	959.423
1970.41	951.208
1972.96	934.326
1975.51	951.445
1978.06	954.563
1980.61	958.348
1983.15	946.133
1985.7	957.918
1988.24	946.37
1990.79	959.488
1993.33	957.273
1995.87	956.392
1998.41	940.843
2000.95	956.628
2003.49	944.414
2006.03	951.532
2008.57	963.984
2011.1	966.435
2013.64	954.887
2016.17	966.005
2018.71	926.457
2021.24	940.242
2023.77	928.027
2026.3	938.479
2028.83	938.931
2031.36	944.716
2033.89	945.834
2036.41	952.953
2038.94	962.071
2041.47	943.189
2043.99	936.308
2046.51	948.093
2049.04	927.878
2051.56	938.33
2054.08	934.115
2056.6	916.566
2059.12	954.351
2061.63	930.803
2064.15	937.921
2066.67	937.04
2069.18	948.158
2071.7	914.61
2074.21	943.062
2076.72	941.513
2079.23	961.298
2081.74	949.084
2084.25	974.869
2086.76	936.654
2089.27	967.105
2091.78	964.224
2094.28	972.675
2096.79	940.461
2099.29	971.579
2101.8	965.364
2104.3	957.149
2106.8	967.601
2109.3	974.052
2111.8	969.837
2114.3	985.622
2116.79	969.408
2119.29	1001.86
2121.79	978.978
2124.28	980.096
2126.78	968.548
2129.27	963
2131.76	979.451
2134.25	967.236
2136.74	973.021
2139.23	942.806
2141.72	983.258
2144.21	970.377
2146.7	946.828
2149.18	959.28
2151.67	950.398
2154.15	968.85
2156.63	955.968
2159.12	923.753
2161.6	971.539
2164.08	927.324
2166.56	935.109
2169.04	939.56
2171.51	933.345
2173.99	969.797
2176.47	936.249
2178.94	958.034
2181.42	957.152
2183.89	925.604
2186.36	922.056
2188.83	952.507
2191.3	971.626
2193.77	944.744
2196.24	925.196
2198.71	961.648
2201.18	951.433
2203.64	954.551
2206.11	953.669
2208.57	942.121
2211.04	968.573
2213.5	943.691
2215.96	967.476
2218.42	965.261
2220.88	964.38
2223.34	954.165
2225.8	981.283
2228.25	966.402
2230.71	971.52
2233.17	985.972
2235.62	975.757
2238.07	973.542
2240.52	996.66
2242.98	971.112
2245.43	992.897
2247.88	1000.02
2250.33	989.8
2252.77	1017.59
2255.22	1003.37
2257.67	971.156
2260.11	986.274
2262.56	1010.73
2265	1003.84
2267.44	1003.63
2269.89	1004.75
2272.33	995.866
2274.77	1023.65
2277.21	1007.44
2279.65	989.888
2282.08	1011.01
2284.52	992.791
2286.96	1007.24
2289.39	1005.69
2291.82	984.146
2294.26	999.931
2296.69	987.716
2299.12	988.835
2301.55	981.286
2303.98	971.072
2306.41	992.19
2308.83	1001.31
2311.26	965.094
2313.69	980.212
2316.11	965.997
2318.54	1001.78
2320.96	998.9
2323.38	1010.69
2325.8	989.137
2328.22	1022.92
2330.65	1034.71
2333.06	1063.16
2335.48	1023.61
2337.9	1029.4
2340.31	983.181
2342.73	989.633
2345.14	1020.75
2347.56	998.536
2349.97	1018.32
2352.38	982.773
2354.79	1019.89
2357.2	1009.01
2359.61	1023.46
2362.02	1037.25
2364.43	1014.36
2366.83	1023.48
2369.24	1041.93
2371.64	1017.05
2374.05	1038.84
2376.45	1035.96
2378.85	1041.07
2381.26	1029.53
2383.65	1030.65
2386.06	1042.43
2388.45	1035.55
2390.85	1046.67
2393.25	1053.79
2395.64	1076.9
2398.04	1041.36
2400.43	1040.47
2402.83	1075.59
2405.22	1054.04
2407.61	1047.16
2410	1073.61
2412.39	1077.4
2414.78	1045.18
2417.17	1094.3
2419.56	1045.42
2421.94	1086.54
2424.33	1028.99
2426.71	1040.78
2429.1	1072.56
2431.48	1054.35
2433.86	1072.8
2436.24	1091.92
2438.62	1071.03
2441	1088.15
2443.38	1064.6
2445.76	1079.72
2448.14	1062.17
2450.51	1069.29
2452.89	1092.41
2455.26	1080.86
2457.63	1076.65
2460.01	1087.1
2462.38	1105.55
2464.75	1060.67
2467.12	1082.46
2469.49	1074.24
2471.86	1062.69
2474.22	1101.81
2476.59	1082.26
2478.96	1066.05
2481.32	1100.5
2483.69	1093.62
2486.05	1074.74
2488.41	1069.19
2490.77	1100.97
2493.13	1094.76
2495.49	1118.54
2497.85	1110.99
2500.21	1108.11
2502.56	1109.9
2504.92	1116.35
2507.28	1096.8
2509.63	1086.59
2511.99	1093.04
2514.34	1094.82
2516.69	1105.27
2519.04	1103.73
2521.39	1100.18
2523.74	1127.96
2526.09	1132.41
2528.44	1114.2
2530.78	1126.65
2533.13	1099.77
2535.47	1147.56
2537.82	1114.01
2540.16	1138.46
2542.5	1134.91
2544.85	1121.36
2547.19	1116.48
2549.53	1114.93
2551.87	1123.38
2554.2	1101.84
2556.54	1135.62
2558.88	1142.07
2561.21	1131.19
2563.55	1126.61
2565.88	1107.37
2568.21	1140.02
2570.55	1128.17
2572.88	1135.4
2575.21	1130.48
2577.54	1143.03
2579.87	1140.64
2582.19	1141.22
2584.52	1138.78
2586.85	1134.34
2589.17	1120.4
2591.5	1147.14
2593.82	1154.26
2596.15	1150.77
2598.47	1132.55
2600.79	1151.41
2603.11	1155.43
2605.43	1144.61
2607.75	1114.48
2610.07	1148.29
2612.38	1154.47
2614.7	1135.29
2617.01	1145.95
2619.33	1161.58
2621.64	1139.37
2623.96	1130.34
2626.27	1145.1
2628.58	1161.29
2630.89	1167.87
2633.2	1182.14
2635.51	1175.1
2637.81	1167.74
2640.12	1167.02
2642.43	1163.32
2644.73	1162.27
2647.04	1153.6
2649.34	1158.59
2651.64	1174.58
2653.94	1152.28
2656.25	1174.92
2658.55	1178.47
2660.85	1153.65
2663.14	1164.97
2665.44	1164.15
2667.74	1162.34
2670.03	1169.04
2672.33	1181.16
2674.62	1167.52
2676.92	1159.8
2679.21	1182.55
2681.5	1183.07
2683.79	1172.45
2686.08	1172.74
2688.37	1173.48
2690.66	1189.03
2692.95	1179.65
2695.24	1193.67
2697.52	1163.83
2699.81	1183.39
2702.09	1183.84
2704.37	1189.45
2706.66	1177.41
2708.94	1175.28
2711.22	1190.44
2713.5	1195.14
2715.78	1199.99
2718.06	1201.03
2720.33	1197.96
2722.61	1195.24
2724.89	1202.02
2727.16	1199.12
2729.44	1203.05
2731.71	1216.91
2733.98	1219.63
2736.26	1218.48
2738.53	1214.85
2740.8	1209.07
2743.07	1210.03
2745.33	1218.96
2747.6	1234.14
2749.87	1230.27
2752.14	1218.02
2754.4	1217.38
2756.66	1232.73
2758.93	1239.98
2761.19	1234.1
2763.45	1237.55
2765.72	1228.72
2767.98	1232.76
2770.23	1227.19
2772.49	1254.81
2774.75	1244.21
2777.01	1220.13
2779.26	1248.31
2781.52	1279.57
2783.77	1258.55
2786.03	1278.96
2788.28	1283.19
2790.53	1282.79
2792.78	1254.03
2795.03	1264.78
2797.28	1246.03
2797.45	1244.11
2799.74	1278.56
2802.03	1267.01
2804.32	1276.13
2806.6	1263.25
2808.89	1276.36
2811.17	1287.48
2813.46	1294.6
2815.74	1285.71
2818.02	1292.16
2820.3	1257.95
2822.58	1271.73
2824.86	1286.85
2827.14	1268.63
2829.42	1309.75
2831.7	1282.2
2833.98	1281.98
2836.25	1297.1
2838.53	1288.88
2840.8	1308
2843.08	1296.45
2845.35	1305.56
2847.62	1303.34
2849.9	1320.46
2852.17	1301.58
2854.44	1294.69
2856.71	1315.14
2858.98	1327.59
2861.24	1325.38
2863.51	1334.49
2865.78	1335.61
2868.04	1303.39
2870.31	1315.18
2872.57	1326.29
2874.84	1354.74
2877.1	1365.19
2879.36	1346.98
2881.62	1346.09
2883.89	1354.54
2886.15	1354.99
2888.41	1369.44
2890.66	1381.23
2892.92	1358.34
2895.18	1406.79
2897.44	1397.24
2899.69	1367.69
2901.95	1393.47
2904.2	1401.26
2906.46	1395.04
2908.71	1388.82
2910.96	1399.94
2913.21	1389.72
2915.46	1407.51
2917.71	1383.29
2919.96	1417.74
2922.21	1430.86
2924.46	1397.31
2926.71	1414.42
2928.95	1411.54
2931.2	1427.99
2933.44	1416.44
2935.68	1412.89
2937.93	1442.67
2940.17	1423.12
2942.41	1449.57
2944.65	1447.36
2946.89	1461.14
2949.13	1415.59
2951.37	1452.7
2953.61	1458.49
2955.85	1452.94
2958.09	1465.39
2960.32	1475.84
2962.56	1472.29
2964.79	1464.07
2967.03	1493.19
2969.26	1462.97
2971.49	1466.09
2973.72	1466.54
2975.95	1476.32
2978.18	1493.44
2980.41	1483.22
2982.64	1494.34
2984.87	1520.79
2987.1	1490.57
2989.33	1489.69
2991.55	1517.47
2993.78	1498.59
2996	1504.37
2998.22	1514.15
3000.45	1505.27
3002.67	1532.38
3004.89	1516.17
3007.11	1496.62
3009.33	1491.73
3011.55	1528.85
3013.77	1509.3
3015.99	1512.42
3018.21	1534.2
3020.42	1552.65
3022.64	1551.1
3024.85	1552.22
3027.07	1534.67
3029.28	1541.78
3031.49	1550.23
3033.71	1576.68
3035.92	1546.47
3038.13	1548.92
3040.34	1558.7
3042.55	1582.48
3044.76	1590.93
3046.97	1583.38
3049.17	1569.83
3051.38	1568.28
3053.58	1586.06
3055.79	1579.85
3058	1605.63
3060.2	1571.41
3062.4	1598.53
3064.6	1608.98
3066.8	1605.43
3069.01	1598.55
3071.21	1588.33
3073.41	1633.45
3075.6	1614.56
3077.8	1626.35
3080	1648.13
3082.2	1605.91
3084.39	1617.03
3086.59	1613.48
3088.78	1639.26
3090.97	1627.71
3093.17	1647.5
3095.36	1662.61
3097.55	1655.06
3099.74	1676.18
3101.93	1655.96
3104.12	1673.74
3106.31	1671.53
3108.5	1659.98
3110.68	1676.43
3112.87	1645.54
3115.06	1704.66
3117.24	1697.11
3119.43	1692.23
3121.61	1686.68
3123.79	1697.13
3125.98	1696.24
3128.16	1700.69
3130.34	1693.81
3132.52	1706.26
3134.7	1694.04
3136.88	1689.16
3139.05	1718.28
3141.23	1738.06
3143.41	1728.51
3145.58	1762.29
3147.76	1718.08
3149.93	1692.53
3152.11	1744.97
3154.28	1744.09
3156.45	1757.21
3158.63	1764.32
3160.8	1756.11
3162.97	1780.56
3165.14	1789.01
3167.3	1743.46
3169.47	1763.24
3171.64	1789.02
3173.81	1786.81
3175.97	1786.59
3178.14	1785.04
3180.3	1781.49
3182.47	1802.61
3184.63	1802.39
3186.79	1804.17
3188.95	1809.96
3191.11	1781.07
3193.28	1796.19
3195.43	1821.97
3197.59	1847.76
3199.75	1821.54
3201.91	1833.99
3204.07	1822.44
3206.22	1822.89
3208.38	1831.34
3210.53	1812.45
3212.69	1836.9
3214.84	1826.69
3216.99	1853.8
3219.14	1886.92
3221.3	1854.04
3223.45	1839.82
3225.6	1878.27
3227.75	1862.05
3229.89	1903.84
3232.04	1888.95
3234.19	1902.07
3236.34	1914.52
3238.48	1890.97
3240.62	1890.09
3242.77	1893.87
3244.91	1898.32
3247.06	1916.1
3249.2	1904.55
3251.34	1933
3253.48	1948.78
3255.62	1933.23
3257.76	1902.35
3259.9	1952.13
3262.04	1971.25
3264.17	1955.7
3266.31	1994.15
3268.45	1993.93
3270.58	1981.05
3272.72	1982.83
3274.85	1977.28
3276.98	1998.4
3279.12	1989.52
3281.25	1963.3
3283.38	1993.08
3285.51	1984.87
3287.64	1989.32
3289.77	2024.43
3291.89	2027.55
3294.02	2018.67
3296.15	2027.11
3298.28	2043.56
3300.4	2028.01
3302.53	2040.46
3304.65	2062.25
3306.77	2047.36
3308.9	2082.48
3311.02	2060.93
3313.14	2087.38
3315.26	2075.83
3317.38	2092.28
3319.5	2111.4
3321.62	2118.51
3323.74	2114.3
3325.85	2104.75
3327.97	2129.2
3330.08	2114.98
3332.2	2114.76
3334.31	2121.88
3336.43	2143.66
3338.54	2129.45
3340.65	2158.56
3342.77	2124.35
3344.88	2168.8
3346.99	2170.58
3349.1	2200.36
3351.21	2211.48
3353.31	2217.93
3355.42	2175.71
3357.53	2196.16
3359.63	2175.94
3361.74	2233.73
3363.84	2226.84
3365.95	2193.96
3368.05	2216.41
3370.15	2216.86
3372.26	2248.64
3374.36	2209.09
3376.46	2228.88
3378.56	2269.99
3380.66	2257.78
3382.76	2296.23
3384.85	2271.34
3386.95	2287.13
3389.05	2291.58
3391.14	2277.36
3393.24	2318.47
3395.33	2286.26
3397.43	2290.71
3399.52	2296.49
3401.61	2295.61
3403.7	2321.39
3405.79	2329.84
3407.89	2323.62
3409.98	2368.74
3412.06	2363.86
3414.15	2391.64
3416.24	2342.09
3418.33	2379.87
3420.41	2343.66
3422.5	2390.11
3424.58	2391.22
3426.67	2391.67
3428.75	2404.79
3430.83	2391.91
3432.92	2433.02
3435	2434.81
3437.08	2385.92
3439.16	2430.37
3441.24	2434.82
3443.32	2457.94
3445.4	2440.39
3447.47	2445.5
3449.55	2483.95
3451.63	2484.4
3453.7	2452.19
3455.78	2485.97
3457.85	2524.42
3459.92	2506.87
3462	2531.99
3464.07	2492.44
3466.14	2484.22
3468.21	2518.67
3470.28	2508.45
3472.35	2546.24
3474.42	2544.69
3476.49	2547.14
3478.55	2543.59
3480.62	2556.04
3482.69	2537.15
3484.75	2584.27
3486.82	2534.72
3488.88	2581.83
3490.94	2599.62
3493.01	2556.07
3495.07	2581.85
3497.13	2594.97
3499.19	2607.42
3501.25	2605.87
3503.31	2628.32
3505.37	2666.1
3507.43	2651.88
3509.48	2661
3511.54	2624.12
3513.59	2658.57
3515.65	2663.68
3517.7	2670.13
3519.76	2669.25
3521.81	2685.7
3523.86	2706.82
3525.92	2700.6
3527.97	2661.05
3530.02	2722.17
3532.07	2681.95
3534.12	2737.73
3536.16	2711.51
3538.21	2680.63
3540.26	2719.08
3542.31	2736.2
3544.35	2754.65
3546.4	2753.1
3548.44	2751.55
3550.49	2783.33
3552.53	2801.78
3554.57	2785.56
3556.61	2829.35
3558.65	2812.46
3560.69	2823.58
3562.73	2832.7
3564.77	2848.48
3566.81	2893.6
3568.85	2889.38
3570.89	2911.16
3572.92	2925.61
3574.96	2926.73
3576.99	2959.18
3579.03	2998.3
3581.06	2979.41
3583.1	3077.86
3585.13	3117.64
3587.16	3167.43
3589.19	3253.88
3591.22	3378.99
3593.25	3580.11
3595.28	3861.23
3597.31	4190.34
3599.34	4762.13
3601.36	5503.91
3603.39	6271.69
3605.42	6840.81
3607.44	7165.26
3609.47	8377.71
3611.49	13177.5
3613.51	17460.6
3615.53	17573.7
3617.56	15487.5
3619.58	10574.6
3621.6	5489.74
3623.62	4057.52
3625.64	3693.97
3627.66	3495.09
3629.67	3472.87
3631.69	3461.99
3633.71	3353.11
3635.72	3373.56
3637.74	3400.67
3639.75	3382.46
3641.77	3378.24
3643.78	3422.02
3645.79	3440.47
3647.8	3440.92
3649.82	3461.37
3651.83	3497.82
3653.84	3532.94
3655.85	3556.06
3657.85	3557.84
3659.86	3562.29
3661.87	3552.07
3663.88	3629.19
3665.88	3614.31
3667.89	3606.09
3669.89	3613.21
3671.9	3638.32
3673.9	3689.44
3675.9	3683.89
3677.9	3695.67
3679.91	3662.12
3681.91	3711.24
3683.91	3721.02
3685.91	3746.14
3687.9	3728.59
3689.9	3720.37
3691.9	3776.82
3693.9	3757.94
3695.89	3779.72
3697.89	3835.5
3699.88	3837.95
3701.88	3859.74
3703.87	3913.52
3705.86	3952.64
3707.86	3940.42
3709.85	3935.54
3711.84	3887.99
3713.83	3881.77
3715.82	3933.55
3717.81	3996
3719.8	3991.12
3721.78	3975.57
3723.77	3977.35
3725.76	3987.8
3727.74	3984.92
3729.73	3977.37
3731.71	3985.15
3733.7	4058.93
3735.68	4078.05
3737.66	4075.83
3739.64	4074.95
3741.62	4096.07
3743.61	4039.85
3745.58	4088.97
3747.56	4156.08
3749.54	4086.53
3751.52	4131.65
3753.5	4169.43
3755.47	4157.22
3757.45	4183.67
3759.43	4192.12
3761.4	4203.23
3763.37	4211.02
3765.35	4208.13
3767.32	4166.58
3769.29	4193.7
3771.26	4153.48
3773.24	4135.93
3775.21	4142.38
3777.17	4166.83
3779.14	4149.28
3781.11	4149.73
3783.08	4182.85
3785.05	4178.63
3787.01	4124.41
3788.98	4200.2
3790.94	4202.65
3792.91	4220.43
3794.87	4229.55
3796.83	4225.33
3798.8	4195.78
3800.76	4255.56
3802.72	4274.68
3804.68	4280.46
3806.64	4231.58
3808.6	4242.03
3810.56	4299.15
3812.51	4292.93
3814.47	4355.38
3816.43	4342.49
3818.38	4356.28
3820.34	4306.73
3822.29	4333.18
3824.25	4358.96
3826.2	4389.41
3828.16	4387.19
3830.11	4392.98
3832.06	4343.43
3834.01	4353.21
3835.96	4383.66
3837.91	4446.11
3839.86	4403.89
3841.81	4435.68
3843.75	4406.79
3845.7	4433.24
3847.65	4451.69
3849.59	4478.81
3851.54	4447.26
3853.48	4530.37
3855.43	4463.49
3857.37	4509.94
3859.31	4534.39
3861.25	4567.51
3863.2	4534.62
3865.14	4555.07
3867.08	4508.86
3869.01	4547.31
3870.95	4551.76
3872.89	4552.21
3874.83	4612.66
3876.77	4594.44
3878.7	4660.22
3880.64	4589.34
3882.57	4601.79
3884.51	4665.57
3886.44	4621.36
3888.37	4656.47
3890.31	4651.59
3892.24	4646.04
3894.17	4625.82
3896.1	4634.94
3898.03	4718.05
3899.96	4666.5
3901.89	4713.62
3903.81	4654.07
3905.74	4747.19
3907.67	4718.97
3909.59	4690.09
3911.52	4817.87
3913.44	4794.32
3915.37	4768.77
3917.29	4787.89
3919.21	4801.67
3921.14	4845.45
3923.06	4857.24
3924.98	4871.69
3926.9	4872.8
3928.82	4902.59
3930.74	4913.04
3932.66	4886.15
3934.57	4944.6
3936.49	4960.39
3938.41	4924.17
3940.32	4993.95
3942.24	4984.4
3944.15	4976.18
3946.07	5002.63
3947.98	4999.08
3949.89	5048.2
3951.8	5065.98
3953.72	5029.1
3955.63	5070.88
3957.54	5113.33
3959.45	5144.45
3961.36	5112.23
3963.26	5159.35
3965.17	5124.47
3967.08	5199.58
3968.98	5216.7
3970.89	5226.48
3972.79	5225.6
3974.7	5242.05
3976.6	5226.5
3978.51	5291.62
3980.41	5341.4
3982.31	5340.52
3984.21	5349.63
3986.11	5426.08
3988.01	5297.2
3989.91	5337.65
3991.81	5370.76
3993.71	5389.21
3995.61	5414.33
3997.51	5376.78
3999.4	5463.9
