#Acq. time (s)=	10
#Accumulations=	4
#Range (cm-¹)=	60...4000
#Windows=	2
#Auto scanning=	Off
#Autofocus=	Off
#AutoExposure=	Off
#Spike filter=	Multiple accum.
#Delay time (s)=	0
#Binning=	1
#Readout mode=	Signal
#DeNoise=	Off
#ICS correction=	Off
#Dark correction=	Off
#Inst. Process=	Off
#Detector Gain=	Best Dynamic Range
#Detector ADC=	45 kHz       
#Detector temperature (°C)=	-60.1
#Instrument=	XploRA Plus
#Detector=	Syncerity OE
#Objective=	x50_VIS_LWD
#Grating=	1200 (750nm)
#Filter=	50%
#Laser=	532nm_Edge
#Slit (µm)=	100 
#Hole (µm)=	300 
#Temperature=	0
#StageXY=	75x50mm Scan+
#StageZ=	Z motor
#X (µm)=	0
#Y (µm)=	0
#Z (µm)=	-40.4
#Full time(mm:ss)=	1:30
#Project=	
#Sample=	
#Site=	
#Title=	cubic_zirconia_17_45_34_2026_04_01_4_10 s_532nm_Edge_1200 (750nm)_x50_VIS_LWD_100 µm_300 µm_50%
#Remark=	
#Date=	01.04.2026 17:45
#Acquired=	01.04.2026 17:45:50
#AxisType[0]=Intens
#AxisUnit[0]=Cnt
#AxisType[1]=Spectr
#AxisUnit[1]=1/cm
62.8738	1737
66.1253	1765
69.3736	1815
72.6208	1858.33
75.869	1800.33
79.1139	1877.67
82.3577	1823.67
85.6003	1811
88.844	1834.33
92.0844	1815
95.3237	1787
98.5619	1800.33
101.799	1762.33
105.035	1755
108.27	1816.33
111.503	1909.67
114.736	2065
117.967	2096.33
121.196	2243.67
124.425	2261
127.653	2307
130.88	2294.33
134.104	2385
137.328	2343.67
140.552	2394.33
143.773	2335
146.994	2202.33
150.212	2088.33
153.431	2028.33
156.647	1943.67
159.862	1920.33
163.078	1873
166.291	1849
169.502	1897
172.713	1882.33
175.924	1888.33
179.132	1849
182.339	1867.67
185.545	1855.67
188.75	1845
191.954	1786.33
195.157	1797
198.358	1696.33
201.559	1712.33
204.758	1675.67
207.954	1630.33
211.152	1628.33
214.348	1603.67
217.543	1623.67
220.734	1610.33
223.927	1639
227.117	1631.67
230.307	1609.67
233.495	1685
236.683	1671.67
239.868	1667
243.055	1644.33
246.238	1651
249.42	1691.67
252.603	1657
255.782	1627.67
258.961	1582.33
262.139	1559
265.315	1535.67
268.49	1513
271.665	1517
274.838	1569.67
278.01	1583
281.181	1679
284.351	1806.33
287.52	2104.33
290.688	2287.67
293.852	2211
297.018	2111
300.183	1878.33
303.344	1764.33
306.506	1750.33
309.665	1845.67
312.826	2050.33
315.983	2442.33
319.141	2735.67
322.296	3029
325.45	2723.67
328.604	2315
331.756	1869.67
334.907	1555
338.056	1409
341.205	1375.67
344.352	1361
347.498	1371
350.643	1357.67
353.788	1387.67
356.931	1389
360.073	1385.67
363.214	1379
366.353	1388.33
369.49	1402.33
372.628	1427.67
375.765	1465.67
378.898	1513
382.033	1621.67
385.164	1819.67
388.296	2155
391.426	2900.33
394.556	3809
397.683	4411
400.809	4277.67
403.936	3645
407.06	2897.67
410.183	2472.33
413.305	2380.33
416.426	2657
419.545	3104.33
422.664	3242.33
425.781	3032.33
428.898	2617
432.013	2326.33
435.128	2139.67
438.239	2247
441.351	2272.33
444.463	2272.33
447.571	2101.67
450.68	1917.67
453.786	1733
456.893	1591
459.997	1496.33
463.102	1423.67
466.204	1354.33
469.305	1353.67
472.406	1308.33
475.505	1337
478.603	1325.67
481.699	1345
484.795	1341
487.889	1305.67
490.983	1305
494.075	1311
497.166	1307
500.257	1301.67
503.346	1301.67
506.434	1321.67
509.519	1333
512.606	1336.33
515.691	1367.67
518.773	1406.33
521.856	1444.33
524.936	1555.67
528.017	1571.67
531.094	1611.67
534.171	1561
537.247	1503
540.324	1455.67
543.398	1409
546.47	1407.67
549.542	1417.67
552.613	1478.33
555.682	1514.33
558.751	1633
561.818	1680.33
564.885	1730.33
567.95	1817.67
571.013	1908.33
574.076	2073
577.138	2207
580.198	2236.33
583.258	2200.33
586.315	2073
589.374	1897
592.429	1743
595.485	1633
598.538	1525.67
601.59	1495.67
604.643	1452.33
607.693	1413.67
610.743	1366.33
613.791	1359
616.838	1392.33
619.884	1405.67
622.929	1441.67
625.973	1427
629.013	1399.67
632.055	1375
635.096	1345
638.136	1361
641.173	1377
644.211	1360.33
647.246	1391
650.282	1405.67
653.314	1397.67
656.348	1433.67
659.379	1490.33
662.409	1485
665.437	1609.67
668.465	1774.33
671.494	2089
674.52	2584.33
677.544	3867.67
680.568	6352.33
683.589	9195.67
686.61	9865
689.631	8768.33
692.651	6542.33
695.669	4341
698.685	2991
701.702	2449
704.715	2099.67
707.73	1889.67
710.742	1770.33
713.754	1649.67
716.764	1621
719.772	1597
722.78	1527
725.789	1509
728.794	1508.33
731.799	1485.67
734.802	1493
737.805	1503.67
740.807	1530.33
743.807	1525.67
746.805	1509
749.804	1515
752.801	1517
755.796	1586.33
758.792	1637
761.786	1741
764.778	1894.33
767.769	2017
770.76	1999.67
773.749	1843.67
776.737	1735
779.725	1601.67
782.711	1486.33
785.696	1493
788.68	1436.33
791.662	1451
794.644	1393.67
797.625	1395.67
800.605	1399.67
803.582	1386.33
806.559	1408.33
809.536	1382.33
812.51	1414.33
815.485	1357.67
818.457	1380.33
821.43	1365.67
824.4	1367.67
827.369	1351
830.339	1361.67
833.306	1347.67
836.272	1361.67
839.237	1388.33
842.201	1359
845.164	1383.67
848.126	1363.67
851.087	1361
854.047	1369
857.007	1373.67
859.963	1399.67
862.92	1373.67
865.876	1366.33
868.83	1365
871.784	1397
874.735	1393.67
877.686	1400.33
880.637	1431
883.586	1438.33
886.533	1446.33
889.48	1491
892.425	1452.33
895.37	1485
898.313	1523
901.256	1633
904.198	1650.33
907.138	1750.33
910.078	1814.33
913.015	1810.33
915.953	1763.67
918.888	1765.67
921.824	1709
924.757	1635
927.691	1603
930.622	1583.67
933.552	1541.67
936.481	1482.33
939.411	1526.33
942.338	1463
945.264	1457.67
948.19	1464.33
951.114	1448.33
954.035	1434.33
956.958	1450.33
959.879	1467.67
962.8	1449.67
965.717	1478.33
968.636	1465.67
971.552	1507
974.468	1554.33
977.382	1587.67
980.295	1608.33
983.209	1683
986.12	1755.67
989.03	1870.33
991.939	2019
994.847	2277.67
997.754	2580.33
1000.66	2763
1003.57	2939
1006.47	3017.67
1009.37	2969.67
1012.27	2902.33
1015.17	2646.33
1018.07	2385.67
1020.97	2215
1023.87	2036.33
1026.77	1952.33
1029.66	1800.33
1032.56	1811.67
1035.45	1783.67
1038.34	1739.67
1041.23	1756.33
1044.12	1784.33
1047.01	1756.33
1049.9	1843
1052.78	1961.67
1055.67	2095.67
1058.56	2404.33
1061.44	2779
1064.32	3173
1067.2	3429.58
1070.08	3552.82
1072.96	3394.07
1075.84	3105.98
1078.72	2818.56
1081.6	2544.47
1084.47	2331.05
1087.35	2130.3
1090.22	2058.21
1093.09	1954.12
1095.96	1862.04
1098.83	1819.95
1101.7	1758.53
1104.57	1721.77
1107.43	1688.35
1110.3	1690.93
1113.16	1651.51
1116.03	1660.09
1118.89	1656.67
1121.75	1635.91
1124.61	1663.82
1127.47	1605.74
1130.33	1635.65
1133.19	1699.56
1136.04	1642.14
1138.9	1689.39
1141.75	1696.63
1144.61	1683.88
1147.46	1693.12
1150.31	1665.03
1153.16	1662.95
1156.01	1646.86
1158.86	1612.77
1161.7	1607.35
1164.55	1619.93
1167.39	1627.84
1170.24	1632.42
1173.08	1669.67
1175.92	1678.25
1178.76	1687.49
1181.6	1704.74
1184.44	1716.65
1187.28	1741.89
1190.12	1748.47
1192.95	1779.05
1195.79	1753.63
1198.62	1774.21
1201.45	1796.12
1204.28	1795.37
1207.11	1815.28
1209.94	1777.19
1212.77	1841.77
1215.6	1889.68
1218.42	1948.93
1221.25	1996.17
1224.07	2096.75
1226.9	2194
1229.72	2341.24
1232.54	2469.16
1235.36	2640.4
1238.18	2752.98
1241	2779.56
1243.81	2577.47
1246.63	2386.05
1249.44	2173.3
1252.26	1947.88
1255.07	1898.46
1257.88	1784.37
1260.69	1719.61
1263.5	1654.19
1266.31	1671.44
1269.12	1655.35
1271.92	1657.26
1274.73	1623.17
1277.53	1647.75
1280.34	1611
1283.14	1588.24
1285.94	1614.16
1288.74	1584.07
1291.54	1617.98
1294.34	1628.56
1297.14	1639.81
1299.93	1635.72
1302.73	1611.63
1305.52	1647.54
1308.31	1618.79
1311.11	1597.37
1313.9	1612.61
1316.69	1612.53
1319.48	1637.77
1322.26	1612.35
1325.05	1612.93
1327.84	1631.51
1330.62	1629.42
1333.41	1662
1336.19	1659.24
1338.97	1670.49
1341.75	1665.74
1344.53	1698.31
1347.31	1670.23
1350.09	1690.14
1352.87	1692.05
1355.64	1691.3
1358.42	1702.54
1361.19	1707.79
1363.96	1644.37
1366.74	1703.61
1369.51	1636.19
1372.28	1664.1
1375.04	1692.02
1377.81	1639.93
1380.58	1651.17
1383.34	1663.75
1386.11	1659
1388.87	1672.24
1391.63	1650.16
1394.4	1647.4
1397.16	1641.31
1399.92	1643.23
1402.67	1688.47
1405.43	1643.05
1408.19	1658.96
1410.95	1629.54
1413.7	1649.45
1416.45	1667.37
1419.21	1633.28
1421.96	1633.19
1424.71	1647.1
1427.46	1675.02
1430.21	1673.59
1432.95	1630.84
1435.7	1640.75
1438.45	1644.67
1441.19	1668.58
1443.93	1658.49
1446.68	1683.74
1449.42	1678.31
1452.16	1651.56
1454.9	1664.81
1457.64	1620.72
1460.37	1655.3
1463.11	1639.21
1465.85	1680.45
1468.58	1669.7
1471.31	1644.95
1474.05	1644.86
1476.78	1636.77
1479.51	1652.02
1482.24	1626.59
1484.97	1641.84
1487.69	1689.09
1490.42	1627.66
1493.15	1680.24
1495.87	1676.82
1498.59	1659.4
1501.32	1668.65
1504.04	1667.23
1506.76	1689.81
1509.48	1653.05
1512.2	1719.63
1514.91	1696.21
1517.63	1689.45
1520.35	1691.37
1523.06	1715.95
1525.77	1686.52
1528.49	1687.77
1531.2	1685.02
1533.91	1699.59
1536.62	1726.17
1539.33	1718.09
1542.04	1737.33
1544.74	1724.58
1547.45	1739.82
1550.15	1753.07
1552.85	1742.98
1555.56	1746.89
1558.26	1772.14
1560.96	1726.05
1563.66	1759.3
1566.36	1746.54
1569.06	1743.79
1571.75	1726.37
1574.45	1748.95
1577.14	1720.19
1579.84	1748.1
1582.53	1746.68
1585.22	1727.93
1587.91	1759.17
1590.6	1761.09
1593.29	1805.66
1595.98	1786.91
1598.67	1804.16
1601.35	1809.4
1604.04	1813.31
1606.72	1787.89
1609.4	1758.47
1612.09	1764.38
1614.77	1718.3
1617.45	1798.21
1620.13	1771.45
1622.8	1796.7
1625.48	1794.61
1628.16	1799.86
1630.83	1779.1
1633.51	1795.68
1636.18	1770.26
1638.85	1748.17
1641.52	1766.75
1644.19	1777.33
1646.86	1757.24
1649.53	1767.82
1652.2	1733.73
1654.86	1759.65
1657.53	1776.23
1660.2	1766.14
1662.86	1750.72
1665.52	1749.3
1668.18	1764.54
1670.84	1721.79
1673.5	1760.37
1676.16	1786.28
1678.82	1718.86
1681.47	1709.44
1684.13	1756.68
1686.79	1757.93
1689.44	1757.17
1692.09	1761.75
1694.74	1715.66
1697.39	1742.91
1700.04	1752.16
1702.69	1726.07
1705.34	1729.98
1707.99	1730.56
1710.64	1729.8
1713.28	1764.38
1715.92	1747.63
1718.57	1774.87
1721.21	1740.12
1723.85	1774.03
1726.49	1740.61
1729.13	1747.86
1731.77	1754.44
1734.41	1731.01
1737.04	1770.26
1739.68	1718.84
1742.31	1775.42
1744.94	1769.33
1747.58	1765.24
1750.21	1751.82
1752.84	1787.07
1755.47	1767.65
1758.1	1771.56
1760.73	1778.8
1763.35	1788.05
1765.98	1795.96
1768.6	1798.54
1771.23	1765.79
1773.85	1806.37
1776.47	1792.94
1779.09	1814.86
1781.71	1770.77
1784.33	1808.01
1786.95	1816.59
1789.57	1763.84
1792.18	1818.42
1794.8	1791
1797.41	1822.24
1800.03	1788.15
1802.64	1814.73
1805.25	1809.98
1807.86	1852.56
1810.47	1797.14
1813.08	1825.05
1815.69	1799.63
1818.29	1795.54
1820.9	1798.79
1823.5	1816.03
1826.11	1793.28
1828.71	1807.86
1831.31	1845.77
1833.91	1813.68
1836.51	1806.93
1839.11	1836.17
1841.71	1799.42
1844.31	1814.66
1846.9	1814.58
1849.5	1841.15
1852.09	1851.73
1854.69	1862.98
1857.28	1866.89
1859.87	1836.14
1862.46	1844.72
1865.05	1823.96
1867.64	1869.21
1870.23	1827.79
1872.81	1875.7
1875.4	1867.61
1877.98	1866.86
1880.57	1857.44
1883.15	1888.68
1885.73	1874.59
1888.31	1853.17
1890.89	1881.75
1893.47	1886.33
1896.05	1855.58
1898.63	1876.82
1901.2	1888.07
1903.78	1875.98
1906.35	1888.56
1908.93	1886.47
1911.5	1898.38
1914.07	1896.29
1916.64	1896.21
1919.21	1854.79
1921.78	1890.03
1924.35	1869.94
1926.92	1875.19
1929.48	1877.1
1932.05	1877.01
1934.61	1858.26
1937.17	1896.17
1939.74	1911.42
1942.3	1912.66
1944.86	1885.24
1947.42	1899.15
1949.98	1922.4
1952.53	1897.65
1955.09	1894.89
1957.65	1928.8
1960.2	1931.38
1962.76	1894.63
1965.31	1941.21
1967.86	1925.79
1970.41	1961.7
1972.96	1921.61
1975.51	1948.19
1978.06	1978.77
1980.61	1942.68
1983.15	1927.93
1985.7	1961.17
1988.24	1959.08
1990.79	1958.33
1993.33	1989.57
1995.87	2004.15
1998.41	1978.73
2000.95	1989.98
2003.49	1989.89
2006.03	1969.8
2008.57	1969.05
2011.1	1964.29
2013.64	1947.54
2016.17	1984.12
2018.71	1990.7
2021.24	1983.28
2023.77	1973.19
2026.3	1986.43
2028.83	2011.68
2031.36	2022.93
2033.89	2004.17
2036.41	1998.75
2038.94	2015.33
2041.47	2035.91
2043.99	1995.15
2046.51	2013.07
2049.04	2004.98
2051.56	2013.56
2054.08	1995.47
2056.6	2017.38
2059.12	2019.29
2061.63	2049.87
2064.15	2011.79
2066.67	2059.03
2069.18	2052.94
2071.7	2038.19
2074.21	2037.43
2076.72	2052.01
2079.23	2072.59
2081.74	2099.84
2084.25	2115.75
2086.76	2108.33
2089.27	2136.24
2091.78	2148.82
2094.28	2112.07
2096.79	2097.98
2099.29	2121.89
2101.8	2095.14
2104.3	2157.71
2106.8	2152.29
2109.3	2148.87
2111.8	2176.78
2114.3	2173.36
2116.79	2194.61
2119.29	2145.19
2121.79	2185.77
2124.28	2203.01
2126.78	2166.93
2129.27	2209.5
2131.76	2182.75
2134.25	2191.33
2136.74	2222.57
2139.23	2174.49
2141.72	2181.07
2144.21	2215.64
2146.7	2176.89
2149.18	2184.14
2151.67	2178.05
2154.15	2199.96
2156.63	2202.54
2159.12	2173.78
2161.6	2215.7
2164.08	2199.61
2166.56	2206.85
2169.04	2166.77
2171.51	2174.01
2173.99	2229.92
2176.47	2193.17
2178.94	2230.42
2181.42	2224.33
2183.89	2238.91
2186.36	2198.82
2188.83	2215.4
2191.3	2256.64
2193.77	2256.56
2196.24	2260.47
2198.71	2266.38
2201.18	2245.63
2203.64	2254.21
2206.11	2263.45
2208.57	2256.03
2211.04	2296.61
2213.5	2295.19
2215.96	2283.77
2218.42	2309.01
2220.88	2322.92
2223.34	2358.84
2225.8	2376.08
2228.25	2350.66
2230.71	2351.91
2233.17	2381.82
2235.62	2395.73
2238.07	2399.64
2240.52	2396.89
2242.98	2467.47
2245.43	2451.38
2247.88	2463.96
2250.33	2451.87
2252.77	2495.12
2255.22	2458.36
2257.67	2510.94
2260.11	2526.85
2262.56	2488.77
2265	2534.01
2267.44	2497.92
2269.89	2523.17
2272.33	2497.08
2274.77	2553.66
2277.21	2536.24
2279.65	2518.82
2282.08	2504.06
2284.52	2544.64
2286.96	2509.89
2289.39	2553.14
2291.82	2561.71
2294.26	2582.96
2296.69	2560.21
2299.12	2524.12
2301.55	2594.7
2303.98	2564.61
2306.41	2545.85
2308.83	2567.1
2311.26	2564.35
2313.69	2588.26
2316.11	2558.84
2318.54	2542.75
2320.96	2624.66
2323.38	2597.24
2325.8	2599.82
2328.22	2629.06
2330.65	2648.98
2333.06	2656.22
2335.48	2656.13
2337.9	2630.05
2340.31	2663.96
2342.73	2607.21
2345.14	2669.78
2347.56	2648.36
2349.97	2664.94
2352.38	2666.19
2354.79	2676.77
2357.2	2704.01
2359.61	2703.26
2362.02	2699.84
2364.43	2704.42
2366.83	2726.99
2369.24	2748.91
2371.64	2736.15
2374.05	2772.06
2376.45	2735.31
2378.85	2735.89
2381.26	2808.47
2383.65	2821.71
2386.06	2815.63
2388.45	2824.2
2390.85	2846.12
2393.25	2868.03
2395.64	2828.61
2398.04	2851.85
2400.43	2855.1
2402.83	2862.34
2405.22	2908.92
2407.61	2877.5
2410	2878.08
2412.39	2917.33
2414.78	2949.24
2417.17	2926.49
2419.56	2896.4
2421.94	2897.64
2424.33	2940.89
2426.71	2942.8
2429.1	2932.71
2431.48	2957.29
2433.86	2944.54
2436.24	2957.12
2438.62	2964.36
2441	2949.61
2443.38	2990.85
2445.76	2992.77
2448.14	2948.68
2450.51	2969.26
2452.89	3006.5
2455.26	2973.08
2457.63	2998.33
2460.01	2964.24
2462.38	2998.15
2464.75	2995.4
2467.12	2991.31
2469.49	3024.56
2471.86	3024.47
2474.22	2994.38
2476.59	3041.63
2478.96	3058.87
2481.32	3058.78
2483.69	3085.36
2486.05	3023.27
2488.41	3046.52
2490.77	3039.77
2493.13	3079.68
2495.49	3065.59
2497.85	3050.17
2500.21	3104.08
2502.56	3071.99
2504.92	3121.91
2507.28	3099.15
2509.63	3121.73
2511.99	3138.98
2514.34	3122.89
2516.69	3156.8
2519.04	3125.38
2521.39	3133.29
2523.74	3113.87
2526.09	3199.12
2528.44	3192.36
2530.78	3118.94
2533.13	3168.19
2535.47	3181.43
2537.82	3177.34
2540.16	3174.59
2542.5	3176.5
2544.85	3187.75
2547.19	3204.99
2549.53	3232.91
2551.87	3207.48
2554.2	3228.06
2556.54	3208.64
2558.88	3225.89
2561.21	3239.8
2563.55	3250.11
2565.88	3215.01
2568.21	3238.09
2570.55	3246.29
2572.88	3265.06
2575.21	3301.78
2577.54	3253
2579.87	3273.81
2582.19	3310.75
2584.52	3302.06
2586.85	3298.2
2589.17	3257.44
2591.5	3281.94
2593.82	3311.42
2596.15	3322.13
2598.47	3326.05
2600.79	3364.76
2603.11	3333.29
2605.43	3362.18
2607.75	3358.04
2610.07	3335.05
2612.38	3388.3
2614.7	3356.23
2617.01	3355.4
2619.33	3361.66
2621.64	3397.9
2623.96	3385.42
2626.27	3403.99
2628.58	3405.78
2630.89	3411.17
2633.2	3390.92
2635.51	3421.33
2637.81	3401.8
2640.12	3461.32
2642.43	3417.69
2644.73	3413.19
2647.04	3398.6
2649.34	3408.08
2651.64	3437.46
2653.94	3465.79
2656.25	3440.44
2658.55	3433.37
2660.85	3457.09
2663.14	3452.29
2665.44	3462.45
2667.74	3472.15
2670.03	3488.58
2672.33	3475.13
2674.62	3465.29
2676.92	3495.63
2679.21	3473.93
2681.5	3504.4
2683.79	3499.21
2686.08	3518.4
2688.37	3518.66
2690.66	3502.61
2692.95	3509.7
2695.24	3507.61
2697.52	3506.42
2699.81	3514.78
2702.09	3544.71
2704.37	3549.57
2706.66	3555.65
2708.94	3547.6
2711.22	3562.8
2713.5	3575.8
2715.78	3594.17
2718.06	3598.3
2720.33	3591.72
2722.61	3607.35
2724.89	3604.38
2727.16	3610.95
2729.44	3607.35
2731.71	3642.68
2733.98	3653.66
2736.26	3643.11
2738.53	3643.95
2740.8	3630.84
2743.07	3651.37
2745.33	3667.76
2747.6	3688.35
2749.87	3694.81
2752.14	3696.25
2754.4	3723.56
2756.66	3738.8
2758.93	3710.46
2761.19	3703.61
2763.45	3728.73
2765.72	3754.32
2767.98	3762.41
2770.23	3759.95
2772.49	3739.86
2774.75	3786.01
2777.01	3743.23
2779.26	3737.87
2781.52	3771.54
2783.77	3790.58
2786.03	3807.78
2788.28	3839.98
2790.53	3825.81
2792.78	3842.07
2795.03	3829.65
2797.28	3836.72
2797.45	3837.28
2799.74	3832.17
2802.03	3855.72
2804.32	3841.93
2806.6	3867.48
2808.89	3831.7
2811.17	3898.58
2813.46	3960.8
2815.74	3874.35
2818.02	3872.56
2820.3	3896.11
2822.58	3895.66
2824.86	3940.55
2827.14	3896.76
2829.42	3889.65
2831.7	3904.53
2833.98	3938.75
2836.25	3965.63
2838.53	3950.51
2840.8	3963.4
2843.08	3980.95
2845.35	3949.83
2847.62	4019.38
2849.9	3987.6
2852.17	4031.15
2854.44	4012.03
2856.71	4052.25
2858.98	4030.46
2861.24	4083.35
2863.51	4095.56
2865.78	4056.44
2868.04	4063.33
2870.31	4114.88
2872.57	4113.09
2874.84	4083.31
2877.1	4109.53
2879.36	4109.08
2881.62	4151.96
2883.89	4163.51
2886.15	4170.39
2888.41	4205.94
2890.66	4199.49
2892.92	4175.71
2895.18	4204.59
2897.44	4250.14
2899.69	4255.69
2901.95	4265.91
2904.2	4302.79
2906.46	4289.68
2908.71	4274.56
2910.96	4268.78
2913.21	4320.33
2915.46	4284.54
2917.71	4260.76
2919.96	4298.98
2922.21	4321.86
2924.46	4296.74
2926.71	4392.29
2928.95	4373.84
2931.2	4343.39
2933.44	4375.61
2935.68	4381.16
2937.93	4360.71
2940.17	4395.59
2942.41	4420.47
2944.65	4380.69
2946.89	4422.91
2949.13	4466.46
2951.37	4390.01
2953.61	4464.22
2955.85	4409.77
2958.09	4440.66
2960.32	4440.87
2962.56	4435.09
2964.79	4470.64
2967.03	4480.19
2969.26	4460.4
2971.49	4473.29
2973.72	4532.84
2975.95	4510.39
2978.18	4537.27
2980.41	4539.49
2982.64	4485.7
2984.87	4535.25
2987.1	4544.8
2989.33	4600.35
2991.55	4501.24
2993.78	4519.45
2996	4540.34
2998.22	4536.55
3000.45	4568.1
3002.67	4547.65
3004.89	4573.2
3007.11	4608.75
3009.33	4584.3
3011.55	4604.52
3013.77	4588.07
3015.99	4640.95
3018.21	4566.5
3020.42	4590.72
3022.64	4564.27
3024.85	4588.48
3027.07	4594.03
3029.28	4620.92
3031.49	4600.47
3033.71	4650.02
3035.92	4673.57
3038.13	4625.78
3040.34	4698.67
3042.55	4684.22
3044.76	4623.1
3046.97	4683.98
3049.17	4710.87
3051.38	4709.08
3053.58	4773.3
3055.79	4720.18
3058	4739.07
3060.2	4681.95
3062.4	4744.17
3064.6	4777.72
3066.8	4799.26
3069.01	4776.15
3071.21	4719.03
3073.41	4791.91
3075.6	4806.13
3077.8	4872.35
3080	4841.23
3082.2	4823.45
3084.39	4772.33
3086.59	4781.88
3088.78	4798.1
3090.97	4788.31
3093.17	4851.86
3095.36	4872.08
3097.55	4835.63
3099.74	4865.18
3101.93	4866.06
3104.12	4894.28
3106.31	4931.16
3108.5	4904.05
3110.68	4892.26
3112.87	4935.81
3115.06	4895.36
3117.24	4982.25
3119.43	4915.8
3121.61	4948.68
3123.79	4966.89
3125.98	4927.78
3128.16	4983.33
3130.34	4986.21
3132.52	4987.09
3134.7	5010.64
3136.88	4961.53
3139.05	4975.74
3141.23	5009.96
3143.41	5049.51
3145.58	5053.06
3147.76	5043.94
3149.93	5048.16
3152.11	5059.04
3154.28	5087.26
3156.45	5112.81
3158.63	5103.69
3160.8	5093.24
3162.97	5095.46
3165.14	5097.67
3167.3	5124.56
3169.47	5126.11
3171.64	5148.99
3173.81	5147.87
3175.97	5142.76
3178.14	5169.64
3180.3	5163.19
3182.47	5164.74
3184.63	5196.29
3186.79	5160.51
3188.95	5196.72
3191.11	5199.61
3193.28	5178.49
3195.43	5228.71
3197.59	5223.59
3199.75	5266.47
3201.91	5194.69
3204.07	5214.24
3206.22	5236.46
3208.38	5236.67
3210.53	5248.89
3212.69	5277.77
3214.84	5239.99
3216.99	5254.21
3219.14	5299.75
3221.3	5279.97
3223.45	5294.19
3225.6	5334.4
3227.75	5331.95
3229.89	5310.17
3232.04	5389.72
3234.19	5361.27
3236.34	5404.15
3238.48	5325.7
3240.62	5388.59
3242.77	5348.14
3244.91	5401.02
3247.06	5427.9
3249.2	5410.79
3251.34	5411
3253.48	5466.55
3255.62	5432.1
3257.76	5438.32
3259.9	5449.87
3262.04	5437.42
3264.17	5484.3
3266.31	5447.19
3268.45	5480.73
3270.58	5492.28
3272.72	5508.5
3274.85	5540.05
3276.98	5568.93
3279.12	5538.48
3281.25	5579.37
3283.38	5601.58
3285.51	5607.13
3287.64	5650.02
3289.77	5653.57
3291.89	5582.45
3294.02	5601.33
3296.15	5674.88
3298.28	5659.77
3300.4	5647.32
3302.53	5674.2
3304.65	5706.42
3306.77	5693.97
3308.9	5648.85
3311.02	5661.73
3313.14	5640.62
3315.26	5734.83
3317.38	5681.05
3319.5	5756.6
3321.62	5804.81
3323.74	5715.7
3325.85	5802.58
3327.97	5773.46
3330.08	5809.68
3332.2	5740.56
3334.31	5798.78
3336.43	5839
3338.54	5766.55
3340.65	5840.76
3342.77	5786.31
3344.88	5831.2
3346.99	5831.41
3349.1	5875.63
3351.21	5891.18
3353.31	5899.4
3355.42	5890.95
3357.53	5853.16
3359.63	5943.38
3361.74	5873.6
3363.84	5996.48
3365.95	5982.69
3368.05	5902.24
3370.15	5971.79
3372.26	5992.01
3374.36	5970.89
3376.46	5938.44
3378.56	5955.33
3380.66	6010.21
3382.76	5991.76
3384.85	5977.98
3386.95	6015.53
3389.05	6025.74
3391.14	6058.63
3393.24	5990.18
3395.33	6062.39
3397.43	6065.28
3399.52	6138.83
3401.61	6069.71
3403.7	6085.93
3405.79	6198.14
3407.89	6079.69
3409.98	6147.24
3412.06	6150.13
3414.15	6146.34
3416.24	6165.89
3418.33	6168.77
3420.41	6196.32
3422.5	6259.87
3424.58	6202.76
3426.67	6210.31
3428.75	6249.19
3430.83	6273.41
3432.92	6278.29
3435	6269.17
3437.08	6342.06
3439.16	6306.27
3441.24	6304.49
3443.32	6332.71
3445.4	6309.59
3447.47	6352.47
3449.55	6360.69
3451.63	6352.24
3453.7	6410.46
3455.78	6372.01
3457.85	6394.89
3459.92	6422.44
3462	6422.65
3464.07	6446.87
3466.14	6419.75
3468.21	6431.3
3470.28	6458.19
3472.35	6490.4
3474.42	6487.29
3476.49	6491.5
3478.55	6481.05
3480.62	6507.27
3482.69	6576.82
3484.75	6565.7
3486.82	6509.92
3488.88	6524.8
3490.94	6619.69
3493.01	6563.9
3495.07	6575.45
3497.13	6535
3499.19	6623.89
3501.25	6690.1
3503.31	6647.65
3505.37	6587.2
3507.43	6690.08
3509.48	6654.3
3511.54	6705.18
3513.59	6650.73
3515.65	6710.28
3517.7	6677.83
3519.76	6729.38
3521.81	6760.93
3523.86	6755.82
3525.92	6694.03
3527.97	6776.25
3530.02	6793.13
3532.07	6773.35
3534.12	6832.9
3536.16	6821.12
3538.21	6827.33
3540.26	6811.55
3542.31	6839.1
3544.35	6861.98
3546.4	6850.87
3548.44	6883.75
3550.49	6868.63
3552.53	6913.52
3554.57	6903.73
3556.61	6901.28
3558.65	7053.5
3560.69	6969.05
3562.73	7056.6
3564.77	7039.48
3566.81	7131.7
3568.85	7061.91
3570.89	7116.8
3572.92	7216.35
3574.96	7279.23
3576.99	7378.11
3579.03	7416.33
3581.06	7497.88
3583.1	7644.1
3585.13	7836.31
3587.16	8112.53
3589.19	8516.75
3591.22	9022.96
3593.25	9707.85
3595.28	10922.7
3597.31	12636.9
3599.34	14890.5
3601.36	17250.7
3603.39	18919.6
3605.42	19189.8
3607.44	19586
3609.47	24224.9
3611.49	33749.1
3613.51	33392.7
3615.53	27938.9
3617.56	21963.8
3619.58	13649.3
3621.6	9498.21
3623.62	8498.43
3625.64	8061.98
3627.66	7883.53
3629.67	7753.08
3631.69	7726.63
3633.71	7736.18
3635.72	7627.73
3637.74	7602.61
3639.75	7598.16
3641.77	7588.38
3643.78	7627.26
3645.79	7640.14
3647.8	7611.02
3649.82	7659.91
3651.83	7736.13
3653.84	7700.34
3655.85	7691.89
3657.85	7664.11
3659.86	7693.66
3661.87	7710.54
3663.88	7711.42
3665.88	7796.31
3667.89	7722.52
3669.89	7735.41
3671.9	7800.29
3673.9	7756.51
3675.9	7791.39
3677.9	7796.27
3679.91	7817.82
3681.91	7755.37
3683.91	7881.59
3685.91	7882.47
3687.9	7815.35
3689.9	7887.57
3691.9	7943.12
3693.9	7888
3695.89	7920.22
3697.89	7928.44
3699.88	7947.99
3701.88	7996.87
3703.87	8004.42
3705.86	8106.64
3707.86	7982.19
3709.85	8093.07
3711.84	8069.95
3713.83	8068.84
3715.82	8114.39
3717.81	8091.27
3719.8	8068.82
3721.78	8109.04
3723.77	8157.92
3725.76	8117.47
3727.74	8156.35
3729.73	8111.24
3731.71	8121.45
3733.7	8170.34
3735.68	8177.88
3737.66	8193.44
3739.64	8132.98
3741.62	8201.2
3743.61	8138.75
3745.58	8221.63
3747.56	8193.85
3749.54	8205.4
3751.52	8158.95
3753.5	8209.17
3755.47	8178.05
3757.45	8252.93
3759.43	8242.48
3761.4	8250.7
3763.37	8205.58
3765.35	8307.13
3767.32	8242.02
3769.29	8221.57
3771.26	8217.12
3773.24	8244.67
3775.21	8213.55
3777.17	8247.77
3779.14	8209.98
3781.11	8201.53
3783.08	8183.75
3785.05	8229.96
3787.01	8225.51
3788.98	8227.07
3790.94	8229.95
3792.91	8247.5
3794.87	8262.38
3796.83	8289.26
3798.8	8313.48
3800.76	8266.36
3802.72	8320.58
3804.68	8234.13
3806.64	8227.68
3808.6	8295.9
3810.56	8359.45
3812.51	8333.66
3814.47	8351.21
3816.43	8375.43
3818.38	8316.31
3820.34	8415.19
3822.29	8387.41
3824.25	8430.29
3826.2	8361.85
3828.16	8401.39
3830.11	8393.61
3832.06	8453.83
3834.01	8465.38
3835.96	8434.93
3837.91	8423.81
3839.86	8402.03
3841.81	8513.58
3843.75	8501.13
3845.7	8467.34
3847.65	8503.56
3849.59	8462.44
3851.54	8421.99
3853.48	8480.88
3855.43	8585.76
3857.37	8563.31
3859.31	8536.86
3861.25	8535.08
3863.2	8516.63
3865.14	8523.51
3867.08	8602.39
3869.01	8589.94
3870.95	8582.83
3872.89	8530.38
3874.83	8596.59
3876.77	8606.14
3878.7	8621.69
3880.64	8631.91
3882.57	8658.12
3884.51	8633.01
3886.44	8574.56
3888.37	8654.11
3890.31	8658.32
3892.24	8637.21
3894.17	8626.76
3896.1	8657.64
3898.03	8708.52
3899.96	8572.07
3901.89	8696.29
3903.81	8585.17
3905.74	8732.06
3907.67	8716.27
3909.59	8669.16
3911.52	8645.37
3913.44	8682.92
3915.37	8743.81
3917.29	8720.69
3919.21	8758.24
3921.14	8687.12
3923.06	8728.67
3924.98	8783.55
3926.9	8717.1
3928.82	8722.65
3930.74	8785.54
3932.66	8818.42
3934.57	8857.3
3936.49	8825.52
3938.41	8812.4
3940.32	8847.29
3942.24	8902.17
3944.15	8861.05
3946.07	8928.6
3947.98	8824.15
3949.89	8881.7
3951.8	8881.25
3953.72	8896.14
3955.63	8939.02
3957.54	8945.24
3959.45	8938.12
3961.36	8954.33
3963.26	8971.88
3965.17	8967.43
3967.08	9071.65
3968.98	9073.87
3970.89	8972.75
3972.79	9056.3
3974.7	8953.18
3976.6	9036.73
3978.51	9080.28
3980.41	9086.5
3982.31	9132.72
3984.21	8996.27
3986.11	9069.82
3988.01	9080.03
3989.91	9172.92
3991.81	9152.47
3993.71	9202.68
3995.61	9147.57
3997.51	9161.78
3999.4	9172.67
