#Acq. time (s)=	20
#Accumulations=	4
#Range (cm-¹)=	60...4000
#Windows=	2
#Auto scanning=	Off
#Autofocus=	Off
#AutoExposure=	Off
#Spike filter=	Multiple accum.
#Delay time (s)=	0
#Binning=	1
#Readout mode=	Signal
#DeNoise=	Off
#ICS correction=	Off
#Dark correction=	Off
#Inst. Process=	Off
#Detector Gain=	Best Dynamic Range
#Detector ADC=	45 kHz       
#Detector temperature (°C)=	-60.1
#Instrument=	XploRA Plus
#Detector=	Syncerity OE
#Objective=	x50_VIS_LWD
#Grating=	1200 (750nm)
#Filter=	50%
#Laser=	532nm_Edge
#Slit (µm)=	100 
#Hole (µm)=	300 
#Temperature=	0
#StageXY=	75x50mm Scan+
#StageZ=	Z motor
#X (µm)=	0
#Y (µm)=	0
#Z (µm)=	-40.4
#Full time(mm:ss)=	2:59
#Project=	
#Sample=	
#Site=	
#Title=	cubic_zirconia_17_57_46_2026_04_01_4_20 s_532nm_Edge_1200 (750nm)_x50_VIS_LWD_100 µm_300 µm_50%
#Remark=	
#Date=	01.04.2026 17:58
#Acquired=	01.04.2026 17:58:21
#AxisType[0]=Intens
#AxisUnit[0]=Cnt
#AxisType[1]=Spectr
#AxisUnit[1]=1/cm
62.8738	1464.33
66.1253	1477.67
69.3736	1491.67
72.6208	1516.33
75.869	1527
79.1139	1631
82.3577	1666.33
85.6003	1633.67
88.844	1588.33
92.0844	1570.33
95.3237	1511.67
98.5619	1481.67
101.799	1399.67
105.035	1459
108.27	1464.33
111.503	1521
114.736	1624.33
117.967	1736.33
121.196	1837
124.425	1902.33
127.653	1919
130.88	2065.67
134.104	2139.67
137.328	2263
140.552	2410.33
143.773	2385
146.994	2300.33
150.212	2068.33
153.431	1831.67
156.647	1719
159.862	1599.67
163.078	1515.67
166.291	1537.67
169.502	1583.67
172.713	1631
175.924	1616.33
179.132	1701
182.339	1718.33
185.545	1776.33
188.75	1811.67
191.954	1771
195.157	1747
198.358	1702.33
201.559	1630.33
204.758	1640.33
207.954	1625.67
211.152	1621
214.348	1586.33
217.543	1569.67
220.734	1559
223.927	1536.33
227.117	1538.33
230.307	1542.33
233.495	1519.67
236.683	1527.67
239.868	1526.33
243.055	1542.33
246.238	1573
249.42	1595.67
252.603	1591.67
255.782	1521.67
258.961	1472.33
262.139	1303
265.315	1223.67
268.49	1197.67
271.665	1205.67
274.838	1211
278.01	1230.33
281.181	1271
284.351	1306.33
287.52	1353.67
290.688	1419
293.852	1477.67
297.018	1531
300.183	1565
303.344	1598.33
306.506	1595
309.665	1633.67
312.826	1803.67
315.983	2181.67
319.141	2922.33
322.296	3555
325.45	3656.33
328.604	3178.33
331.756	2399
334.907	1649.67
338.056	1309.67
341.205	1187.67
344.352	1179.67
347.498	1108.33
350.643	1114.33
353.788	1103.67
356.931	1107
360.073	1115.67
363.214	1126.33
366.353	1118.33
369.49	1136.33
372.628	1187.67
375.765	1185.67
378.898	1258.33
382.033	1353.67
385.164	1431.67
388.296	1583.67
391.426	1820.33
394.556	2142.33
397.683	2337.67
400.809	2267.67
403.936	2014.33
407.06	1675
410.183	1387.67
413.305	1272.33
416.426	1245
419.545	1283
422.664	1290.33
425.781	1303.67
428.898	1255
432.013	1195.67
435.128	1237.67
438.239	1283
441.351	1427
444.463	1539.67
447.571	1719
450.68	1724.33
453.786	1625
456.893	1419.67
459.997	1287.67
463.102	1214.33
466.204	1149.67
469.305	1105
472.406	1089
475.505	1107
478.603	1071.67
481.699	1099.67
484.795	1078.33
487.889	1099
490.983	1094.33
494.075	1088.33
497.166	1113
500.257	1107
503.346	1146.33
506.434	1164.33
509.519	1203
512.606	1237
515.691	1359.67
518.773	1507
521.856	1685
524.936	1818.33
528.017	1995
531.094	1975.67
534.171	1868.33
537.247	1720.33
540.324	1527.67
543.398	1388.33
546.47	1269
549.542	1189
552.613	1125.67
555.682	1093.67
558.751	1074.33
561.818	1067
564.885	1081
567.95	1069.67
571.013	1077
574.076	1119
577.138	1109.67
580.198	1130.33
583.258	1102.33
586.315	1128.33
589.374	1083.67
592.429	1084.33
595.485	1079
598.538	1058.33
601.59	1060.33
604.643	1074.33
607.693	1043
610.743	1041.67
613.791	1067
616.838	1133.67
619.884	1231.67
622.929	1284.33
625.973	1263.67
629.013	1227.67
632.055	1153.67
635.096	1080.33
638.136	1095.67
641.173	1116.33
644.211	1120.33
647.246	1145
650.282	1139
653.314	1165
656.348	1187.67
659.379	1211
662.409	1303.67
665.437	1422.33
668.465	1587.67
671.494	1888.33
674.52	2441.67
677.544	3677.67
680.568	6135.67
683.589	9252.33
686.61	10658.3
689.631	10132.3
692.651	7791.67
695.669	4863
698.685	3017
701.702	2216.33
704.715	1837
707.73	1578.33
710.742	1443.67
713.754	1331
716.764	1254.33
719.772	1225.67
722.78	1151.67
725.789	1126.33
728.794	1147
731.799	1136.33
734.802	1127.67
737.805	1116.33
740.807	1117
743.807	1100.33
746.805	1119.67
749.804	1121
752.801	1144.33
755.796	1154.33
758.792	1192.33
761.786	1238.33
764.778	1269.67
767.769	1293.67
770.76	1293.67
773.749	1312.33
776.737	1269
779.725	1209
782.711	1195.67
785.696	1159
788.68	1155.67
791.662	1126.33
794.644	1118.33
797.625	1109.67
800.605	1113
803.582	1075
806.559	1105.67
809.536	1078.33
812.51	1073.67
815.485	1084.33
818.457	1057.67
821.43	1090.33
824.4	1072.33
827.369	1063
830.339	1084.33
833.306	1080.33
836.272	1068.33
839.237	1074.33
842.201	1069
845.164	1078.33
848.126	1082.33
851.087	1051
854.047	1060.33
857.007	1074.33
859.963	1091.67
862.92	1079.67
865.876	1086.33
868.83	1076.33
871.784	1065
874.735	1070.33
877.686	1065
880.637	1075
883.586	1090.33
886.533	1097.67
889.48	1113
892.425	1117.67
895.37	1128.33
898.313	1149
901.256	1129.67
904.198	1206.33
907.138	1216.33
910.078	1269
913.015	1329
915.953	1367.67
918.888	1369
921.824	1336.33
924.757	1330.33
927.691	1241.67
930.622	1237
933.552	1215.67
936.481	1176.33
939.411	1151.67
942.338	1135.67
945.264	1152.33
948.19	1102.33
951.114	1130.33
954.035	1131.67
956.958	1081.67
959.879	1113.67
962.8	1134.33
965.717	1129.67
968.636	1165.67
971.552	1157
974.468	1185
977.382	1203
980.295	1221.67
983.209	1252.33
986.12	1295.67
989.03	1330.33
991.939	1406.33
994.847	1529
997.754	1693
1000.66	1953
1003.57	2331
1006.47	2783
1009.37	3179.67
1012.27	3478.33
1015.17	3495.67
1018.07	3218.33
1020.97	2799.67
1023.87	2447.67
1026.77	2191.67
1029.66	2038.33
1032.56	1962.33
1035.45	1912.33
1038.34	1932.33
1041.23	2025
1044.12	2170.33
1047.01	2331
1049.9	2660.33
1052.78	3123
1055.67	3915.67
1058.56	5015
1061.44	6558.33
1064.32	8338.33
1067.2	9770.39
1070.08	10291.1
1072.96	9721.83
1075.84	8408.55
1078.72	6915.27
1081.6	5665.99
1084.47	4578.72
1087.35	3796.1
1090.22	3246.16
1093.09	2823.55
1095.96	2456.27
1098.83	2274.99
1101.7	2094.38
1104.57	1951.1
1107.43	1855.15
1110.3	1775.21
1113.16	1698.6
1116.03	1639.98
1118.89	1631.37
1121.75	1584.09
1124.61	1580.82
1127.47	1556.87
1130.33	1518.92
1133.19	1561.65
1136.04	1576.37
1138.9	1601.09
1141.75	1627.81
1144.61	1640.53
1147.46	1645.25
1150.31	1581.31
1153.16	1534.7
1156.01	1411.42
1158.86	1388.14
1161.7	1297.53
1164.55	1250.91
1167.39	1237.64
1170.24	1207.69
1173.08	1213.75
1175.92	1229.13
1178.76	1217.85
1181.6	1223.91
1184.44	1220.63
1187.28	1218.69
1190.12	1255.41
1192.95	1213.46
1195.79	1246.85
1198.62	1234.9
1201.45	1217.63
1204.28	1223.68
1207.11	1237.73
1209.94	1200.46
1212.77	1215.18
1215.6	1217.23
1218.42	1229.29
1221.25	1236.01
1224.07	1213.4
1226.9	1221.45
1229.72	1262.84
1232.54	1258.89
1235.36	1296.95
1238.18	1303.67
1241	1315.72
1243.81	1281.78
1246.63	1251.17
1249.44	1223.89
1252.26	1170.61
1255.07	1182
1257.88	1162.05
1260.69	1184.77
1263.5	1142.83
1266.31	1132.22
1269.12	1167.6
1271.92	1140.99
1274.73	1137.71
1277.53	1151.1
1280.34	1153.16
1283.14	1151.88
1285.94	1179.93
1288.74	1153.99
1291.54	1163.38
1294.34	1176.76
1297.14	1157.49
1299.93	1156.87
1302.73	1167.59
1305.52	1146.98
1308.31	1177.7
1311.11	1155.76
1313.9	1147.81
1316.69	1175.87
1319.48	1135.26
1322.26	1192.64
1325.05	1176.03
1327.84	1189.42
1330.62	1166.81
1333.41	1176.86
1336.19	1182.92
1338.97	1188.97
1341.75	1187.03
1344.53	1175.08
1347.31	1178.47
1350.09	1188.52
1352.87	1193.25
1355.64	1197.97
1358.42	1157.36
1361.19	1188.74
1363.96	1193.46
1366.74	1180.19
1369.51	1182.24
1372.28	1210.3
1375.04	1212.35
1377.81	1191.74
1380.58	1191.13
1383.34	1175.85
1386.11	1183.9
1388.87	1160.62
1391.63	1189.35
1394.4	1193.4
1397.16	1174.79
1399.92	1183.51
1402.67	1192.9
1405.43	1195.62
1408.19	1184.34
1410.95	1188.39
1413.7	1205.12
1416.45	1195.17
1419.21	1201.89
1421.96	1211.28
1424.71	1240
1427.46	1235.39
1430.21	1203.44
1432.95	1222.83
1435.7	1223.55
1438.45	1218.27
1441.19	1223
1443.93	1217.72
1446.68	1193.11
1449.42	1185.83
1452.16	1226.55
1454.9	1249.27
1457.64	1197.99
1460.37	1208.05
1463.11	1225.43
1465.85	1215.49
1468.58	1209.54
1471.31	1216.26
1474.05	1211.65
1476.78	1222.37
1479.51	1207.76
1482.24	1211.15
1484.97	1222.54
1487.69	1237.26
1490.42	1209.98
1493.15	1224.04
1495.87	1217.42
1498.59	1228.14
1501.32	1204.2
1504.04	1240.92
1506.76	1224.31
1509.48	1241.7
1512.2	1217.75
1514.91	1218.47
1517.63	1235.86
1520.35	1236.58
1523.06	1243.97
1525.77	1265.36
1528.49	1233.41
1531.2	1253.47
1533.91	1228.19
1536.62	1256.91
1539.33	1245.63
1542.04	1250.35
1544.74	1271.74
1547.45	1278.46
1550.15	1270.52
1552.85	1268.57
1555.56	1272.63
1558.26	1269.35
1560.96	1246.07
1563.66	1270.79
1566.36	1262.85
1569.06	1249.57
1571.75	1274.29
1574.45	1277.01
1577.14	1288.4
1579.84	1263.79
1582.53	1257.84
1585.22	1259.9
1587.91	1257.28
1590.6	1270.67
1593.29	1252.06
1595.98	1246.11
1598.67	1238.17
1601.35	1275.56
1604.04	1292.28
1606.72	1269
1609.4	1269.05
1612.09	1293.78
1614.77	1291.16
1617.45	1259.89
1620.13	1275.27
1622.8	1302.66
1625.48	1305.38
1628.16	1313.44
1630.83	1325.49
1633.51	1318.88
1636.18	1316.27
1638.85	1303.66
1641.52	1309.71
1644.19	1325.1
1646.86	1299.82
1649.53	1301.87
1652.2	1282.6
1654.86	1285.98
1657.53	1292.71
1660.2	1310.09
1662.86	1272.81
1665.52	1285.54
1668.18	1306.92
1670.84	1307.65
1673.5	1297.7
1676.16	1268.42
1678.82	1288.48
1681.47	1295.2
1684.13	1297.92
1686.79	1288.64
1689.44	1286.7
1692.09	1290.08
1694.74	1314.8
1697.39	1290.86
1700.04	1314.91
1702.69	1294.97
1705.34	1291.02
1707.99	1321.08
1710.64	1320.47
1713.28	1307.85
1715.92	1300.58
1718.57	1331.3
1721.21	1321.35
1723.85	1311.41
1726.49	1322.79
1729.13	1318.85
1731.77	1312.9
1734.41	1344.96
1737.04	1334.35
1739.68	1315.73
1742.31	1313.12
1744.94	1346.51
1747.58	1335.23
1750.21	1357.29
1752.84	1333.34
1755.47	1328.73
1758.1	1328.78
1760.73	1354.84
1763.35	1367.56
1765.98	1350.28
1768.6	1383
1771.23	1343.06
1773.85	1351.11
1776.47	1374.5
1779.09	1334.56
1781.71	1356.61
1784.33	1336.66
1786.95	1340.05
1789.57	1359.44
1792.18	1338.83
1794.8	1365.55
1797.41	1352.27
1800.03	1350.33
1802.64	1355.05
1805.25	1343.1
1807.86	1342.49
1810.47	1345.88
1813.08	1374.6
1815.69	1345.99
1818.29	1356.04
1820.9	1358.1
1823.5	1336.15
1826.11	1360.87
1828.71	1346.93
1831.31	1372.32
1833.91	1363.04
1836.51	1355.09
1839.11	1369.15
1841.71	1375.87
1844.31	1361.92
1846.9	1357.31
1849.5	1362.03
1852.09	1362.09
1854.69	1362.81
1857.28	1386.86
1859.87	1362.92
1862.46	1348.97
1865.05	1364.36
1867.64	1356.41
1870.23	1391.8
1872.81	1394.52
1875.4	1374.58
1877.98	1395.97
1880.57	1370.69
1883.15	1396.74
1885.73	1396.8
1888.31	1401.52
1890.89	1388.24
1893.47	1404.3
1896.05	1393.68
1898.63	1385.07
1901.2	1406.46
1903.78	1393.85
1906.35	1393.9
1908.93	1397.29
1911.5	1370.01
1914.07	1381.4
1916.64	1420.79
1919.21	1386.18
1921.78	1384.23
1924.35	1390.28
1926.92	1389.67
1929.48	1417.73
1932.05	1388.45
1934.61	1393.84
1937.17	1428.56
1939.74	1412.61
1942.3	1397.33
1944.86	1407.39
1947.42	1384.11
1949.98	1403.5
1952.53	1412.22
1955.09	1400.94
1957.65	1423
1960.2	1410.38
1962.76	1437.77
1965.31	1428.49
1967.86	1423.88
1970.41	1407.27
1972.96	1425.99
1975.51	1424.71
1978.06	1427.43
1980.61	1456.15
1983.15	1436.88
1985.7	1444.26
1988.24	1426.99
1990.79	1439.04
1993.33	1463.1
1995.87	1455.82
1998.41	1422.54
2000.95	1453.93
2003.49	1434.65
2006.03	1432.7
2008.57	1463.42
2011.1	1459.48
2013.64	1472.2
2016.17	1428.92
2018.71	1451.64
2021.24	1463.03
2023.77	1453.75
2026.3	1457.81
2028.83	1456.53
2031.36	1474.58
2033.89	1457.3
2036.41	1504.69
2038.94	1464.08
2041.47	1465.47
2043.99	1452.86
2046.51	1441.58
2049.04	1460.3
2051.56	1471.69
2054.08	1487.74
2056.6	1474.46
2059.12	1457.18
2061.63	1487.91
2064.15	1492.63
2066.67	1470.68
2069.18	1475.4
2071.7	1474.12
2074.21	1500.18
2076.72	1496.23
2079.23	1490.95
2081.74	1513.01
2084.25	1503.73
2086.76	1522.45
2089.27	1517.84
2091.78	1504.56
2094.28	1501.95
2096.79	1511.34
2099.29	1536.06
2101.8	1516.11
2104.3	1520.84
2106.8	1554.22
2109.3	1520.28
2111.8	1551.67
2114.3	1534.39
2116.79	1559.11
2119.29	1545.16
2121.79	1542.55
2124.28	1567.27
2126.78	1546.66
2129.27	1537.38
2131.76	1589.44
2134.25	1588.82
2136.74	1562.21
2139.23	1565.6
2141.72	1548.32
2144.21	1573.71
2146.7	1537.1
2149.18	1535.82
2151.67	1543.21
2154.15	1540.6
2156.63	1542.65
2159.12	1551.37
2161.6	1529.43
2164.08	1548.81
2166.56	1546.87
2169.04	1544.92
2171.51	1529.65
2173.99	1563.03
2176.47	1532.42
2178.94	1535.14
2181.42	1565.2
2183.89	1552.59
2186.36	1555.97
2188.83	1541.36
2191.3	1551.42
2193.77	1570.8
2196.24	1561.53
2198.71	1566.91
2201.18	1568.97
2203.64	1608.36
2206.11	1597.08
2208.57	1570.47
2211.04	1575.19
2213.5	1599.91
2215.96	1578.63
2218.42	1609.35
2220.88	1624.07
2223.34	1640.13
2225.8	1621.52
2228.25	1644.24
2230.71	1621.62
2233.17	1647.01
2235.62	1639.07
2238.07	1637.79
2240.52	1635.18
2242.98	1655.9
2245.43	1685.29
2247.88	1650.01
2250.33	1675.4
2252.77	1657.45
2255.22	1694.17
2257.67	1686.23
2260.11	1682.95
2262.56	1668.34
2265	1707.72
2267.44	1694.45
2269.89	1707.83
2272.33	1699.89
2274.77	1689.94
2277.21	1708
2279.65	1701.39
2282.08	1722.11
2284.52	1700.83
2286.96	1721.55
2289.39	1697.6
2291.82	1722.99
2294.26	1683.71
2296.69	1717.77
2299.12	1730.49
2301.55	1703.21
2303.98	1721.27
2306.41	1675.32
2308.83	1710.71
2311.26	1740.1
2313.69	1711.48
2316.11	1728.21
2318.54	1706.26
2320.96	1689.65
2323.38	1708.37
2325.8	1742.42
2328.22	1783.15
2330.65	1795.2
2333.06	1796.59
2335.48	1769.31
2337.9	1730.7
2340.31	1728.75
2342.73	1758.81
2345.14	1755.53
2347.56	1774.25
2349.97	1766.3
2352.38	1781.69
2354.79	1769.08
2357.2	1775.14
2359.61	1769.19
2362.02	1787.25
2364.43	1777.97
2366.83	1799.35
2369.24	1798.74
2371.64	1816.8
2374.05	1796.19
2376.45	1832.91
2378.85	1818.96
2381.26	1823.68
2383.65	1839.74
2386.06	1850.46
2388.45	1846.51
2390.85	1858.57
2393.25	1865.29
2395.64	1881.34
2398.04	1881.4
2400.43	1870.12
2402.83	1853.51
2405.22	1868.9
2407.61	1882.28
2410	1893.01
2412.39	1893.06
2414.78	1867.12
2417.17	1917.84
2419.56	1893.89
2421.94	1908.61
2424.33	1919.33
2426.71	1928.06
2429.1	1892.78
2431.48	1930.16
2433.86	1876.89
2436.24	1906.94
2438.62	1947
2441	1925.72
2443.38	1911.77
2445.76	1922.49
2448.14	1933.88
2450.51	1955.27
2452.89	1945.99
2455.26	1938.05
2457.63	1952.77
2460.01	1976.15
2462.38	1980.88
2464.75	1924.93
2467.12	1973.65
2469.49	1944.37
2471.86	1927.76
2474.22	1985.82
2476.59	1947.2
2478.96	1953.26
2481.32	1986.65
2483.69	1974.7
2486.05	1950.76
2488.41	1997.48
2490.77	2001.53
2493.13	2008.25
2495.49	1973.64
2497.85	2029.03
2500.21	1997.75
2502.56	2000.47
2504.92	2020.53
2507.28	2030.58
2509.63	2016.64
2511.99	2043.36
2514.34	2020.08
2516.69	2037.47
2519.04	2010.86
2521.39	2024.24
2523.74	2050.3
2526.09	2063.69
2528.44	2036.41
2530.78	2075.13
2533.13	2055.85
2535.47	2055.24
2537.82	2054.63
2540.16	2064.01
2542.5	2068.07
2544.85	2067.46
2547.19	2061.51
2549.53	2070.9
2551.87	2069.62
2554.2	2091.68
2556.54	2090.4
2558.88	2117.79
2561.21	2105.17
2563.55	2108.38
2565.88	2114.92
2568.21	2114.76
2570.55	2134.85
2572.88	2124.29
2575.21	2128.75
2577.54	2132.79
2579.87	2117.01
2582.19	2149.05
2584.52	2149.86
2586.85	2132.61
2589.17	2159.62
2591.5	2153.86
2593.82	2174.94
2596.15	2162.19
2598.47	2162.58
2600.79	2174.7
2603.11	2185.39
2605.43	2181.17
2607.75	2188.52
2610.07	2180.15
2612.38	2169.15
2614.7	2215.19
2617.01	2211.71
2619.33	2203.47
2621.64	2213.7
2623.96	2209.01
2626.27	2229.19
2628.58	2238.86
2630.89	2233.06
2633.2	2189.49
2635.51	2238.47
2637.81	2231.84
2640.12	2259.21
2642.43	2235.35
2644.73	2227.83
2647.04	2257.08
2649.34	2264.9
2651.64	2244.19
2653.94	2256.68
2656.25	2273.36
2658.55	2274.25
2660.85	2274.77
2663.14	2272.7
2665.44	2281
2667.74	2288.33
2670.03	2270.17
2672.33	2272.51
2674.62	2295.16
2676.92	2279.46
2679.21	2290.69
2681.5	2299.55
2683.79	2286.91
2686.08	2306.45
2688.37	2303.33
2690.66	2301.23
2692.95	2304.5
2695.24	2297.47
2697.52	2340.99
2699.81	2336.23
2702.09	2336.43
2704.37	2311.53
2706.66	2342.42
2708.94	2333.81
2711.22	2365.19
2713.5	2362.35
2715.78	2367.03
2718.06	2369.8
2720.33	2387.8
2722.61	2383.99
2724.89	2391.44
2727.16	2394.51
2729.44	2377.93
2731.71	2383.47
2733.98	2416.74
2736.26	2412.88
2738.53	2424.42
2740.8	2423.54
2743.07	2411.66
2745.33	2423.34
2747.6	2429.52
2749.87	2439.77
2752.14	2440.62
2754.4	2445.3
2756.66	2436.52
2758.93	2471.66
2761.19	2470.26
2763.45	2502.73
2765.72	2515.8
2767.98	2516.85
2770.23	2506.31
2772.49	2508.72
2774.75	2492.34
2777.01	2520.07
2779.26	2514.46
2781.52	2514.54
2783.77	2527.31
2786.03	2554.25
2788.28	2559.94
2790.53	2516.39
2792.78	2536.81
2795.03	2585.21
2797.28	2554.81
2797.45	2551.99
2799.74	2600.55
2802.03	2569.11
2804.32	2613.68
2806.6	2574.24
2808.89	2562.8
2811.17	2577.36
2813.46	2586.59
2815.74	2583.15
2818.02	2571.05
2820.3	2626.94
2822.58	2624.84
2824.86	2568.06
2827.14	2642.63
2829.42	2618.52
2831.7	2618.42
2833.98	2609.64
2836.25	2624.87
2838.53	2622.77
2840.8	2652.66
2843.08	2627.89
2845.35	2660.45
2847.62	2670.35
2849.9	2684.91
2852.17	2675.47
2854.44	2684.7
2856.71	2688.59
2858.98	2683.16
2861.24	2693.72
2863.51	2691.61
2865.78	2713.51
2868.04	2710.74
2870.31	2733.3
2872.57	2719.86
2874.84	2747.76
2877.1	2714.32
2879.36	2736.88
2881.62	2720.77
2883.89	2761.34
2886.15	2769.23
2888.41	2783.79
2890.66	2775.02
2892.92	2784.25
2895.18	2804.81
2897.44	2774.04
2899.69	2797.93
2901.95	2821.16
2904.2	2814.39
2906.46	2836.95
2908.71	2792.85
2910.96	2822.08
2913.21	2837.3
2915.46	2853.2
2917.71	2865.09
2919.96	2856.99
2922.21	2857.55
2924.46	2882.78
2926.71	2881.34
2928.95	2873.9
2931.2	2907.13
2933.44	2917.69
2935.68	2921.59
2937.93	2941.48
2940.17	2881.38
2942.41	2917.27
2944.65	2948.5
2946.89	2954.4
2949.13	2996.29
2951.37	2961.52
2953.61	2974.08
2955.85	2958.64
2958.09	3008.54
2960.32	2986.43
2962.56	2977.66
2964.79	2964.22
2967.03	2979.45
2969.26	3007.35
2971.49	2994.58
2973.72	2972.47
2975.95	3028.37
2978.18	3030.26
2980.41	3032.16
2982.64	3027.38
2984.87	3021.95
2987.1	3062.51
2989.33	3057.07
2991.55	3086.3
2993.78	3072.86
2996	3090.75
2998.22	3098.65
3000.45	3059.88
3002.67	3109.11
3004.89	3109
3007.11	3123.56
3009.33	3098.12
3011.55	3088.69
3013.77	3119.25
3015.99	3130.48
3018.21	3107.7
3020.42	3120.27
3022.64	3110.16
3024.85	3082.72
3027.07	3114.62
3029.28	3151.18
3031.49	3124.41
3033.71	3169.64
3035.92	3104.86
3038.13	3176.09
3040.34	3133.32
3042.55	3169.88
3044.76	3160.45
3046.97	3170.34
3049.17	3218.9
3051.38	3219.46
3053.58	3211.36
3055.79	3199.92
3058	3217.82
3060.2	3235.04
3062.4	3246.27
3064.6	3218.17
3066.8	3201.4
3069.01	3281.96
3071.21	3230.52
3073.41	3273.08
3075.6	3225.64
3077.8	3271.54
3080	3279.43
3082.2	3253.33
3084.39	3269.22
3086.59	3301.12
3088.78	3263.01
3090.97	3278.91
3093.17	3253.47
3095.36	3249.36
3097.55	3281.93
3099.74	3298.49
3101.93	3323.05
3104.12	3310.28
3106.31	3310.84
3108.5	3326.73
3110.68	3319.96
3112.87	3339.19
3115.06	3347.75
3117.24	3305.65
3119.43	3394.88
3121.61	3324.1
3123.79	3385.33
3125.98	3347.23
3128.16	3368.46
3130.34	3373.02
3132.52	3370.91
3134.7	3406.81
3136.88	3378.7
3139.05	3436.6
3141.23	3433.83
3143.41	3425.06
3145.58	3408.28
3147.76	3436.85
3149.93	3443.41
3152.11	3463.3
3154.28	3419.86
3156.45	3505.76
3158.63	3495.65
3160.8	3473.55
3162.97	3488.11
3165.14	3522.67
3167.3	3513.23
3169.47	3459.13
3171.64	3511.69
3173.81	3484.25
3175.97	3500.15
3178.14	3464.04
3180.3	3493.27
3182.47	3496.5
3184.63	3494.39
3186.79	3492.29
3188.95	3554.18
3191.11	3538.75
3193.28	3517.31
3195.43	3520.54
3197.59	3504.43
3199.75	3518.33
3201.91	3545.55
3204.07	3542.78
3206.22	3544.01
3208.38	3547.91
3210.53	3553.8
3212.69	3569.03
3214.84	3536.26
3216.99	3614.82
3219.14	3571.38
3221.3	3599.94
3223.45	3647.84
3225.6	3621.07
3227.75	3609.63
3229.89	3590.19
3232.04	3628.09
3234.19	3663.98
3236.34	3659.21
3238.48	3621.77
3240.62	3665
3242.77	3658.89
3244.91	3648.12
3247.06	3608.02
3249.2	3656.58
3251.34	3629.14
3253.48	3645.04
3255.62	3701.6
3257.76	3696.16
3259.9	3691.39
3262.04	3679.28
3264.17	3685.84
3266.31	3697.74
3268.45	3709.64
3270.58	3689.53
3272.72	3741.43
3274.85	3738.65
3276.98	3773.88
3279.12	3773.11
3281.25	3808.34
3283.38	3774.9
3285.51	3741.46
3287.64	3758.02
3289.77	3799.25
3291.89	3789.81
3294.02	3773.04
3296.15	3802.27
3298.28	3814.17
3300.4	3837.39
3302.53	3841.29
3304.65	3857.18
3306.77	3854.41
3308.9	3828.31
3311.02	3896.2
3313.14	3851.43
3315.26	3840.66
3317.38	3877.22
3319.5	3911.78
3321.62	3943.01
3323.74	3917.57
3325.85	3907.47
3327.97	3940.7
3330.08	3917.26
3332.2	3935.15
3334.31	3947.71
3336.43	3890.28
3338.54	3884.84
3340.65	3990.73
3342.77	3915.29
3344.88	3944.52
3346.99	3965.08
3349.1	3925.65
3351.21	3922.21
3353.31	3979.44
3355.42	4016
3357.53	4007.89
3359.63	3940.46
3361.74	3979.68
3363.84	3982.91
3365.95	3982.81
3368.05	3953.37
3370.15	4019.26
3372.26	3989.83
3374.36	4031.72
3376.46	4024.95
3378.56	4054.18
3380.66	3966.07
3382.76	4042.63
3384.85	4044.53
3386.95	4047.09
3389.05	4037.65
3391.14	4046.21
3393.24	4065.44
3395.33	4055.34
3397.43	4065.9
3399.52	4061.13
3401.61	4101.69
3403.7	4124.25
3405.79	4116.15
3407.89	4067.37
3409.98	4151.27
3412.06	4160.5
3414.15	4131.06
3416.24	4155.62
3418.33	4170.85
3420.41	4146.08
3422.5	4156.64
3424.58	4149.2
3426.67	4199.76
3428.75	4141.66
3430.83	4165.55
3432.92	4198.11
3435	4194.01
3437.08	4207.24
3439.16	4225.8
3441.24	4205.03
3443.32	4236.92
3445.4	4238.82
3447.47	4230.71
3449.55	4222.61
3451.63	4225.84
3453.7	4253.73
3455.78	4260.96
3457.85	4247.52
3459.92	4257.42
3462	4311.31
3464.07	4268.54
3466.14	4302.44
3468.21	4307.66
3470.28	4298.89
3472.35	4346.12
3474.42	4264.68
3476.49	4316.58
3478.55	4310.47
3480.62	4339.03
3482.69	4283.6
3484.75	4301.49
3486.82	4370.05
3488.88	4368.61
3490.94	4389.18
3493.01	4295.07
3495.07	4392.3
3497.13	4324.86
3499.19	4354.09
3501.25	4405.32
3503.31	4375.21
3505.37	4373.11
3507.43	4361.67
3509.48	4364.23
3511.54	4386.79
3513.59	4394.02
3515.65	4350.58
3517.7	4426.48
3519.76	4419.71
3521.81	4416.27
3523.86	4432.16
3525.92	4430.06
3527.97	4482.62
3530.02	4411.18
3532.07	4452.41
3534.12	4467.64
3536.16	4488.87
3538.21	4468.1
3540.26	4492.66
3542.31	4469.22
3544.35	4520.45
3546.4	4503.68
3548.44	4464.24
3550.49	4518.13
3552.53	4514.69
3554.57	4515.92
3556.61	4576.48
3558.65	4621.05
3560.69	4620.94
3562.73	4600.17
3564.77	4611.4
3566.81	4648.63
3568.85	4652.52
3570.89	4647.75
3572.92	4696.31
3574.96	4742.21
3576.99	4813.44
3579.03	4861.33
3581.06	4875.89
3583.1	4947.12
3585.13	5033.02
3587.16	5145.58
3589.19	5285.47
3591.22	5646.7
3593.25	5953.26
3595.28	6549.82
3597.31	7463.72
3599.34	8612.28
3601.36	9807.51
3603.39	10905.4
3605.42	11354
3607.44	11949.2
3609.47	14936.4
3611.49	21370.3
3613.51	23543.5
3615.53	21959.4
3617.56	17772.7
3619.58	10473.9
3621.6	6501.79
3623.62	5598.35
3625.64	5392.92
3627.66	5207.48
3629.67	5099.37
3631.69	5072.6
3633.71	4954.5
3635.72	4994.39
3637.74	5014.95
3639.75	4998.18
3641.77	5101.41
3643.78	5090.64
3645.79	5052.53
3647.8	5200.43
3649.82	5130.99
3651.83	5194.88
3653.84	5214.78
3655.85	5240.67
3657.85	5299.9
3659.86	5301.13
3661.87	5304.36
3663.88	5322.92
3665.88	5349.48
3667.89	5336.71
3669.89	5381.27
3671.9	5307.84
3673.9	5353.73
3675.9	5318.96
3677.9	5276.19
3679.91	5244.08
3681.91	5295.98
3683.91	5288.54
3685.91	5347.77
3687.9	5267.66
3689.9	5290.22
3691.9	5278.79
3693.9	5265.35
3695.89	5328.58
3697.89	5326.47
3699.88	5333.7
3701.88	5380.26
3703.87	5441.49
3705.86	5402.72
3707.86	5425.28
3709.85	5420.51
3711.84	5432.4
3713.83	5423.63
3715.82	5402.86
3717.81	5394.09
3719.8	5346.65
3721.78	5406.54
3723.77	5431.77
3725.76	5435.67
3727.74	5374.9
3729.73	5434.79
3731.71	5308.69
3733.7	5396.58
3735.68	5402.48
3737.66	5365.04
3739.64	5408.27
3741.62	5445.5
3743.61	5454.72
3745.58	5461.29
3747.56	5527.18
3749.54	5440.41
3751.52	5484.97
3753.5	5510.87
3755.47	5505.43
3757.45	5478.66
3759.43	5474.55
3761.4	5441.11
3763.37	5450.34
3765.35	5414.24
3767.32	5400.13
3769.29	5385.36
3771.26	5403.25
3773.24	5358.48
3775.21	5289.71
3777.17	5308.27
3779.14	5333.5
3781.11	5306.73
3783.08	5301.29
3785.05	5313.19
3787.01	5305.75
3788.98	5302.31
3790.94	5314.21
3792.91	5335.43
3794.87	5336.66
3796.83	5333.89
3798.8	5341.12
3800.76	5338.35
3802.72	5326.91
3804.68	5352.14
3806.64	5326.03
3808.6	5306.59
3810.56	5334.49
3812.51	5354.38
3814.47	5378.28
3816.43	5401.51
3818.38	5339.4
3820.34	5357.3
3822.29	5357.86
3824.25	5385.09
3826.2	5334.98
3828.16	5358.88
3830.11	5427.44
3832.06	5408
3834.01	5377.9
3835.96	5407.12
3837.91	5389.69
3839.86	5348.25
3841.81	5407.48
3843.75	5369.37
3845.7	5416.6
3847.65	5420.49
3849.59	5352.39
3851.54	5461.62
3853.48	5457.51
3855.43	5416.74
3857.37	5389.3
3859.31	5446.53
3861.25	5401.09
3863.2	5344.32
3865.14	5382.88
3867.08	5418.11
3869.01	5356.67
3870.95	5407.23
3872.89	5379.13
3874.83	5413.02
3876.77	5420.25
3878.7	5411.48
3880.64	5455.38
3882.57	5433.94
3884.51	5420.5
3886.44	5333.06
3888.37	5420.29
3890.31	5437.52
3892.24	5384.08
3894.17	5433.31
3896.1	5434.54
3898.03	5400.43
3899.96	5381.66
3901.89	5381.56
3903.81	5388.12
3905.74	5410.01
3907.67	5388.57
3909.59	5437.14
3911.52	5443.03
3913.44	5444.26
3915.37	5402.82
3917.29	5423.38
3919.21	5425.28
3921.14	5420.51
3923.06	5421.73
3924.98	5470.3
3926.9	5412.86
3928.82	5408.75
3930.74	5433.31
3932.66	5467.21
3934.57	5467.77
3936.49	5457.67
3938.41	5484.23
3940.32	5494.12
3942.24	5445.35
3944.15	5486.58
3946.07	5475.14
3947.98	5471.7
3949.89	5466.93
3951.8	5512.16
3953.72	5512.72
3955.63	5521.95
3957.54	5479.85
3959.45	5550.41
3961.36	5564.3
3963.26	5552.86
3965.17	5545.43
3967.08	5567.99
3968.98	5589.88
3970.89	5567.78
3972.79	5500.34
3974.7	5583.57
3976.6	5613.46
3978.51	5520.02
3980.41	5566.59
3982.31	5542.48
3984.21	5645.04
3986.11	5548.27
3988.01	5563.5
3989.91	5614.73
3991.81	5587.29
3993.71	5552.52
3995.61	5567.08
3997.51	5615.64
3999.4	5536.87
