#Acq. time (s)=	20
#Accumulations=	4
#Range (cm-¹)=	60...4000
#Windows=	3
#Auto scanning=	Off
#Autofocus=	Off
#AutoExposure=	Off
#Spike filter=	Multiple accum.
#Delay time (s)=	0
#Binning=	1
#Readout mode=	Signal
#DeNoise=	Off
#ICS correction=	Off
#Dark correction=	Off
#Inst. Process=	Off
#Detector Gain=	Best Dynamic Range
#Detector ADC=	45 kHz       
#Detector temperature (°C)=	-60.1
#Instrument=	XploRA Plus
#Detector=	Syncerity OE
#Objective=	x50_VIS_LWD
#Grating=	1200 (750nm)
#Filter=	10%
#Laser=	638nm_Edge
#Slit (µm)=	100 
#Hole (µm)=	300 
#Temperature=	0
#StageXY=	75x50mm Scan+
#StageZ=	Z motor
#X (µm)=	0
#Y (µm)=	0
#Z (µm)=	42.9
#Full time(mm:ss)=	4:14
#Project=	
#Sample=	
#Site=	
#Title=	Quartz_15_59_06_2026_03_30_4_20 s_638nm_Edge_1200 (750nm)_x50_VIS_LWD_100 µm_300 µm_10%
#Remark=	
#Date=	30.03.2026 15:59
#Acquired=	30.03.2026 15:59:32
#AxisType[0]=Intens
#AxisUnit[0]=Cnt
#AxisType[1]=Spectr
#AxisUnit[1]=1/cm
62.2295	1166.33
64.3928	1179.58
66.5569	1130.82
68.719	1104.73
70.882	1075.31
73.0428	1089.89
75.2031	1133.8
77.3628	1075.04
79.5219	1100.28
81.6818	1080.19
83.8397	1052.11
85.997	1048.02
88.1522	1040.59
90.3083	1067.84
92.4638	1058.41
94.6187	1031.66
96.773	1026.24
98.9252	1048.81
101.078	1025.39
103.231	1038.63
105.381	1033.88
107.533	1043.12
109.682	1026.37
111.831	1004.94
113.98	1011.52
116.128	1025.43
118.274	1024.01
120.421	1050.58
122.566	1047.83
124.712	1009.74
126.856	1020.32
129	1071.56
131.143	1057.47
133.286	1091.38
135.428	1052.63
137.57	1073.87
139.709	1097.78
141.85	1148.36
143.988	1158.27
146.127	1273.51
148.264	1396.76
150.402	1646.67
152.538	2145.24
154.674	2886.49
156.81	3243.73
158.944	3222.31
161.078	2831.55
163.211	2194.8
165.343	1656.04
167.475	1381.95
169.606	1239.86
171.737	1149.77
173.866	1135.68
175.995	1096.93
178.124	1081.5
180.253	1052.75
182.379	1035.32
184.506	1031.9
186.631	1027.81
188.756	1029.72
190.881	1024.3
193.004	1026.21
195.127	1019.45
197.251	1004.7
199.373	1011.27
201.494	1001.85
203.614	998.429
205.734	1039.67
207.853	1030.92
209.971	990.827
212.089	1014.07
214.206	989.982
216.323	1006.56
218.438	1001.8
220.554	990.38
222.668	1004.96
224.783	1015.53
226.895	1006.11
229.007	1000.69
231.12	1000.6
233.231	1014.51
235.341	1035.09
237.451	1032.33
239.56	1026.24
241.669	1047.49
243.777	1059.4
245.884	1071.31
247.991	1097.22
250.096	1091.79
252.202	1141.7
254.307	1155.62
256.41	1193.53
258.514	1200.1
260.616	1273.35
262.719	1329.26
264.82	1397.17
266.92	1517.08
269.021	1630.99
271.12	1813.57
273.219	2035.48
275.317	2432.72
277.414	3073.3
279.511	4001.88
281.607	4863.79
283.701	5298.36
285.797	5106.94
287.891	4446.85
289.984	3478.76
292.077	2662.67
294.17	2101.25
296.261	1752.49
298.351	1545.74
300.442	1410.98
302.531	1300.89
304.62	1260.14
306.708	1206.05
308.795	1167.96
310.882	1158.53
312.968	1120.44
315.054	1072.35
317.139	1080.27
319.224	1074.18
321.308	1096.09
323.39	1038
325.473	1025.24
327.553	1005.15
329.635	1029.06
331.715	990.972
333.794	1004.88
335.874	1015.46
337.952	988.037
340.03	994.614
342.107	1001.86
344.183	975.102
346.259	978.346
348.334	963.59
350.409	972.834
352.483	958.078
354.557	983.321
356.628	983.899
358.701	987.142
360.771	982.386
362.842	993.63
364.912	984.207
366.982	986.785
369.05	985.362
371.118	990.606
373.185	964.516
375.251	969.093
377.317	952.337
379.383	978.915
381.448	984.158
383.512	961.402
385.576	951.979
387.639	965.89
389.7	941.801
391.762	965.044
393.822	960.955
395.883	940.199
397.942	964.776
400.001	946.02
402.06	933.93
404.117	937.841
406.174	962.418
408.23	948.329
410.286	936.239
412.341	954.15
414.396	952.06
416.45	943.971
418.502	933.215
420.554	956.459
422.607	935.036
424.657	936.946
426.708	954.19
428.758	930.101
430.808	961.345
432.856	965.922
434.904	929.832
436.951	928.41
438.997	940.32
441.043	931.564
443.089	922.808
445.133	929.385
447.178	931.296
449.222	946.54
451.263	917.783
453.306	931.027
455.348	914.271
457.388	927.515
459.429	918.092
461.468	935.336
463.507	923.247
465.545	930.491
467.584	931.734
469.621	929.645
471.657	897.556
473.693	910.799
475.727	906.71
477.761	894.62
479.796	917.198
481.829	927.775
483.861	920.352
485.893	925.596
487.924	923.507
489.955	910.75
491.985	926.661
494.014	933.905
496.044	921.149
498.072	918.393
500.099	914.303
502.126	926.214
504.152	936.124
506.178	920.701
508.201	904.612
510.226	905.189
512.25	917.766
514.272	893.677
516.295	904.921
518.316	906.831
520.338	900.742
522.358	912.652
524.378	900.563
526.396	892.474
528.416	907.051
530.434	896.961
532.451	882.872
534.467	908.116
536.483	880.693
538.499	891.937
540.514	921.181
542.527	917.091
544.541	901.668
546.553	908.912
548.566	904.823
550.577	910.067
552.588	898.644
554.599	897.888
556.609	900.465
558.618	928.376
560.626	898.953
562.634	902.863
564.64	888.774
566.646	933.351
568.653	881.928
570.657	883.172
572.662	915.083
574.667	894.993
576.67	926.904
578.672	884.148
580.675	905.391
582.676	911.969
584.677	893.213
586.677	887.123
588.676	901.7
590.675	893.611
592.674	896.855
594.671	904.099
596.668	898.009
598.665	896.586
600.66	903.164
602.656	897.741
604.65	886.985
606.643	883.562
608.637	866.806
610.63	879.383
612.622	893.294
614.613	906.537
616.604	886.448
618.594	893.692
620.584	876.269
622.571	888.846
624.56	876.757
626.548	868.001
628.534	876.578
630.52	875.155
632.507	882.399
634.491	874.976
636.476	884.22
638.459	880.797
640.444	908.708
642.426	883.285
644.407	886.529
646.388	875.773
648.369	873.017
650.35	870.927
652.328	878.171
654.308	878.748
656.286	885.325
658.264	869.903
660.24	877.813
662.216	856.39
664.193	868.968
666.168	872.211
668.143	863.455
670.117	895.366
672.089	873.276
674.061	848.52
676.034	864.431
678.006	888.341
679.975	874.252
681.946	874.829
683.915	861.406
685.884	875.317
687.853	871.227
689.82	873.138
691.787	894.382
693.753	871.626
695.719	910.203
697.684	871.447
699.649	900.024
701.612	891.935
703.576	929.178
705.539	932.422
707.5	1042.33
709.461	1316.24
711.423	1906.15
713.383	2236.06
715.342	2134.64
717.301	1919.22
719.259	1503.13
721.217	1113.04
723.174	960.284
725.131	914.861
727.087	902.772
729.041	876.015
730.996	879.926
732.95	890.503
734.904	884.414
736.856	874.324
738.808	882.901
740.761	885.479
742.711	873.389
744.662	856.633
746.611	890.544
748.559	867.788
750.508	873.698
752.456	871.609
754.403	850.852
756.35	842.763
758.295	876.007
760.241	843.917
762.186	858.495
764.13	859.738
766.073	848.316
768.017	889.56
769.959	856.137
771.9	854.714
773.841	879.291
775.782	859.868
777.722	865.779
779.66	864.356
781.6	878.267
783.537	858.844
785.474	866.754
787.412	883.332
789.348	871.242
791.283	869.153
793.218	846.397
795.152	839.641
797.086	873.551
799.02	865.462
800.951	852.705
802.883	846.616
804.814	852.527
806.745	867.77
808.675	885.014
810.604	839.591
812.534	884.169
814.462	866.079
816.389	835.99
818.316	860.567
820.243	860.478
822.168	871.721
824.093	878.299
826.018	846.876
827.941	827.453
829.865	848.697
831.787	825.941
833.709	852.518
835.632	859.095
837.552	838.339
839.473	846.916
841.392	832.827
843.311	848.737
845.229	861.315
847.147	846.558
849.065	805.802
850.981	844.38
852.897	842.957
854.812	843.534
856.727	861.444
858.642	836.688
860.555	829.932
862.468	849.176
864.38	854.42
866.292	838.997
868.203	851.574
870.113	814.818
872.024	852.062
873.932	831.973
875.842	835.883
877.75	849.127
879.657	861.038
881.565	829.615
883.471	838.192
885.376	834.103
887.282	876.013
889.186	817.924
891.089	835.834
892.993	854.411
894.896	824.322
896.797	840.899
898.7	840.81
900.6	830.72
902.5	840.631
904.399	822.541
906.298	862.452
908.197	834.362
910.095	853.606
911.992	802.184
913.889	834.094
915.786	825.338
917.68	847.248
919.576	825.159
921.47	847.736
923.363	840.98
925.257	824.891
927.149	833.468
929.041	845.378
930.932	851.956
932.823	844.533
934.713	834.443
936.602	853.021
938.491	830.264
940.379	829.508
942.267	826.086
944.154	827.329
946.04	837.24
947.927	828.484
949.812	846.394
951.696	827.638
953.58	832.215
955.463	844.793
957.346	825.37
959.229	804.614
961.11	847.191
962.991	835.768
964.871	837.012
966.752	840.922
968.631	814.166
970.51	805.41
972.388	788.654
974.265	833.898
976.142	802.475
978.019	809.052
979.893	820.296
981.769	808.207
983.643	833.451
985.518	825.361
987.391	820.605
989.263	825.182
991.135	825.093
993.006	829.67
994.877	801.581
996.748	815.491
998.618	838.068
1000.49	827.312
1002.35	838.556
1004.22	855.133
1006.09	827.711
1007.96	836.288
1009.82	865.532
1011.69	852.776
1013.55	826.686
1015.42	816.597
1017.28	851.84
1019.15	846.418
1021.01	846.328
1022.87	844.905
1024.73	842.149
1026.59	843.393
1028.45	842.637
1030.31	835.214
1032.17	851.792
1034.03	818.369
1035.89	845.613
1037.75	839.523
1039.6	824.767
1041.46	846.677
1043.31	846.588
1045.17	846.499
1047.02	832.409
1048.88	822.32
1050.73	842.897
1052.58	833.474
1054.43	828.051
1056.28	851.962
1058.14	843.206
1059.99	846.45
1061.84	847.027
1063.68	865.604
1065.53	911.515
1067.38	914.758
1069.23	940.669
1071.08	961.246
1072.92	930.49
1074.77	946.401
1076.61	988.311
1078.46	1060.89
1080.3	1274.8
1082.14	1880.71
1083.99	4111.29
1085.83	10651.9
1087.67	13623.8
1089.51	12287
1091.35	10112.9
1093.19	5958.84
1095.03	2102.75
1096.87	1231.99
1098.7	1023.9
1100.54	974.482
1102.38	929.059
1104.21	894.303
1106.05	876.213
1107.88	854.124
1109.72	866.701
1111.55	863.945
1113.39	854.522
1115.22	819.766
1117.05	851.676
1118.88	832.92
1120.71	832.164
1122.54	822.075
1124.37	833.319
1126.2	838.562
1128.03	844.473
1129.86	832.384
1131.69	832.961
1133.51	836.871
1135.34	814.115
1137.16	812.026
1138.99	827.27
1140.81	833.18
1142.64	845.757
1144.46	816.334
1146.28	810.245
1148.1	799.489
1149.93	840.066
1151.75	806.643
1153.57	818.554
1155.39	829.798
1157.21	805.708
1159.03	808.952
1160.84	815.529
1162.66	815.44
1164.48	810.684
1166.29	814.594
1168.11	808.505
1169.93	813.749
1171.74	810.993
1173.55	811.57
1175.37	789.48
1177.18	781.391
1178.99	787.301
1180.8	793.212
1182.61	794.456
1184.42	805.033
1186.24	804.944
1188.04	801.521
1189.85	788.765
1191.66	817.342
1193.47	821.919
1195.28	790.496
1197.08	818.407
1198.89	798.317
1200.69	790.895
1202.5	806.805
1204.3	822.716
1206.11	799.293
1207.91	814.537
1209.71	792.447
1211.51	816.358
1213.31	814.935
1215.12	794.846
1216.92	818.089
1218.72	801.333
1220.51	808.577
1222.31	829.154
1224.11	827.065
1225.91	801.642
1227.7	820.219
1229.5	820.797
1231.3	800.041
1233.09	807.951
1234.88	811.195
1236.68	797.105
1238.47	832.349
1240.26	837.593
1242.06	833.504
1243.85	820.081
1245.64	837.992
1247.43	811.902
1249.22	831.146
1251.01	802.39
1252.8	844.967
1254.59	830.878
1256.37	818.788
1258.16	818.032
1259.95	817.276
1261.73	840.52
1263.52	825.097
1265.3	809.008
1267.08	802.251
1268.87	824.829
1270.65	836.072
1272.43	786.65
1274.22	831.893
1276	807.804
1277.78	810.381
1279.56	802.958
1281.34	837.536
1283.12	800.78
1284.89	808.023
1286.67	811.267
1288.45	819.178
1290.23	815.755
1292	809.666
1293.78	809.576
1295.55	815.487
1297.33	824.064
1299.1	842.641
1300.87	815.218
1302.65	803.795
1304.42	811.039
1306.19	800.95
1307.96	802.194
1309.73	787.438
1311.5	800.015
1313.27	786.592
1315.04	797.169
1316.81	794.413
1318.58	808.324
1320.34	806.234
1322.11	794.811
1323.87	794.055
1325.64	801.299
1327.4	793.21
1329.17	793.12
1330.93	803.031
1332.7	811.608
1334.46	780.185
1336.22	776.096
1337.98	775.34
1339.74	797.25
1341.5	787.827
1343.26	763.738
1345.02	771.648
1346.78	790.226
1348.54	782.136
1350.29	780.047
1352.05	759.957
1353.81	776.535
1355.56	789.112
1357.32	775.022
1359.07	783.599
1360.83	788.177
1362.58	788.754
1364.33	770.664
1366.08	779.242
1367.84	770.486
1369.59	782.396
1371.34	795.64
1373.09	754.217
1374.84	766.128
1376.59	794.038
1378.34	785.282
1380.08	758.526
1381.83	752.437
1383.58	768.347
1385.32	766.924
1387.07	762.835
1388.81	772.079
1390.56	765.989
1392.3	771.9
1394.05	751.81
1395.79	741.721
1397.53	784.298
1399.27	747.542
1401.01	773.453
1402.75	763.363
1404.49	783.94
1406.23	767.184
1407.97	773.095
1409.71	777.005
1411.45	776.249
1413.19	761.493
1414.92	775.403
1416.66	762.647
1418.39	775.891
1420.13	778.468
1421.86	769.712
1423.6	786.29
1425.33	771.533
1427.06	808.111
1428.8	782.021
1430.53	810.598
1432.26	806.509
1433.99	864.419
1435.72	932.33
1437.45	994.24
1439.18	994.151
1440.9	950.728
1442.63	883.972
1444.36	825.216
1446.09	783.127
1447.81	783.704
1449.54	769.614
1451.26	763.525
1452.99	770.769
1454.71	764.679
1456.43	749.923
1458.16	743.834
1459.88	754.411
1461.6	743.655
1463.32	728.232
1465.04	750.143
1466.76	746.72
1468.48	741.297
1470.2	742.541
1471.92	741.118
1473.64	728.362
1475.35	742.939
1477.07	744.183
1478.79	754.76
1480.5	736.671
1482.22	752.581
1483.93	738.492
1485.64	736.402
1487.36	740.313
1489.07	732.89
1490.78	741.467
1492.49	756.044
1494.21	736.622
1495.92	721.866
1497.63	728.443
1499.34	733.02
1501.04	735.597
1502.75	726.174
1504.46	730.085
1506.17	729.995
1507.87	758.573
1509.58	728.483
1511.29	763.06
1512.99	731.638
1514.7	739.548
1516.4	738.125
1518.1	749.369
1519.81	746.613
1521.51	725.19
1523.21	731.101
1524.91	723.678
1526.61	736.922
1528.31	713.499
1530.01	731.41
1531.71	741.987
1533.41	731.231
1535.11	726.475
1536.8	717.052
1538.5	735.629
1540.2	730.206
1541.89	740.784
1543.59	730.027
1545.28	733.271
1546.98	720.515
1548.67	733.092
1550.36	735.67
1552.06	720.247
1553.75	737.491
1555.44	698.068
1557.13	738.645
1558.82	702.556
1560.51	729.799
1562.2	732.377
1563.89	722.287
1565.58	726.865
1567.26	734.775
1568.95	731.352
1570.64	729.929
1572.32	713.84
1574.01	705.75
1575.69	723.661
1577.38	701.572
1579.06	717.482
1580.74	720.059
1582.43	723.303
1584.11	707.214
1585.79	709.124
1587.47	723.035
1589.15	703.612
1590.83	688.856
1592.51	711.433
1594.19	696.01
1595.87	723.921
1597.55	703.831
1599.22	695.742
1600.9	695.653
1602.58	730.23
1604.25	688.14
1605.93	690.717
1607.6	679.295
1609.27	693.872
1610.95	699.782
1612.62	686.36
1614.29	694.27
1615.97	689.514
1617.64	686.758
1619.31	682.002
1620.98	687.246
1622.65	685.156
1624.32	669.067
1625.98	684.977
1627.65	648.888
1629.32	674.132
1630.99	674.709
1632.65	675.953
1634.32	685.197
1635.98	649.107
1637.65	671.684
1639.31	695.595
1640.98	682.172
1642.64	660.083
1644.3	659.327
1645.97	661.237
1647.63	661.814
1649.29	651.058
1650.95	687.635
1652.61	660.213
1654.27	656.79
1655.93	666.034
1657.58	659.944
1659.24	665.855
1660.9	668.432
1662.56	661.676
1664.21	642.92
1665.87	644.83
1667.52	659.407
1669.18	649.318
1670.83	631.895
1672.49	653.806
1674.14	637.716
1675.79	640.96
1677.44	647.537
1679.09	639.448
1680.75	650.025
1682.39	641.936
1684.05	637.18
1685.69	651.09
1687.34	651.001
1688.99	649.578
1690.64	659.488
1692.29	638.066
1693.93	651.309
1695.58	648.553
1697.22	643.797
1698.87	635.041
1700.51	635.618
1702.16	652.195
1703.8	642.773
1705.44	622.017
1707.09	631.26
1708.73	627.171
1710.37	609.748
1712.01	625.659
1713.65	618.903
1715.29	614.813
1716.93	634.057
1718.57	637.968
1720.2	618.545
1721.84	628.455
1723.48	609.033
1725.12	610.943
1726.75	630.187
1728.39	612.764
1730.02	618.008
1731.66	617.252
1733.29	623.162
1734.92	623.073
1736.56	614.984
1738.19	618.894
1739.82	606.805
1741.45	628.049
1743.08	624.626
1744.71	638.536
1746.34	677.78
1747.97	749.024
1749.6	795.601
1751.23	794.178
1752.85	776.756
1754.48	770.666
1756.11	721.243
1757.73	655.821
1759.36	661.731
1760.98	639.642
1762.61	604.008
1764.23	597.693
1765.85	597.781
1767.48	610.924
1769.1	591.884
1770.72	574.779
1772.34	592.554
1773.96	590.883
1775.58	560.398
1777.2	577.025
1778.82	578.952
1780.44	577.534
1782.06	594.018
1783.67	586.683
1785.29	577.396
1786.91	582.646
1788.52	588.477
1790.14	589.722
1791.75	575.806
1793.37	580.089
1794.98	580.621
1796.59	577.559
1798.21	564.653
1799.82	594.596
1801.43	576.809
1803.04	571.907
1804.65	578.161
1806.26	566.027
1807.87	564.829
1809.48	566.608
1811.09	562.518
1812.7	561.519
1814.3	565.779
1815.91	560.014
1817.52	551.349
1819.12	548.081
1820.73	556.745
1822.34	555.532
1823.94	550.426
1825.54	538.892
1827.15	541.814
1828.75	541.787
1830.35	545.099
1831.95	541.633
1833.55	539.116
1835.15	534.826
1836.75	538.921
1838.35	555.873
1839.95	522.903
1841.55	526.252
1843.15	533.992
1844.75	527.742
1846.34	533.207
1847.94	529.932
1849.54	542.137
1851.13	524.733
1852.73	525.493
1854.32	522.499
1855.92	525.039
1857.51	522.909
1859.1	530.885
1860.69	524.35
1862.29	526.755
1863.88	522.591
1865.47	517.335
1867.06	527.804
1868.65	534.729
1870.24	522.891
1871.83	523.638
1873.41	524.811
1875	521.299
1876.59	517.603
1878.18	524.569
1879.76	521.702
1881.35	522.161
1882.93	528.234
1884.52	530.827
1886.1	513.487
1887.68	521.765
1889.27	501.372
1890.85	517.919
1892.43	529.886
1894.01	526.48
1895.59	502.951
1897.18	525.464
1898.75	522.304
1900.33	505.056
1901.91	513.352
1903.49	522.604
1905.07	519.745
1906.65	515.651
1908.22	507.427
1909.8	520.913
1911.38	512.784
1912.95	514.863
1914.53	504.127
1916.1	501.286
1917.67	508.735
1919.25	516.247
1920.82	509.1
1922.39	504.251
1923.96	508.017
1925.53	511.114
1927.1	514.288
1928.68	520.414
1929.45	524.204
1931.06	502.137
1932.67	494.736
1934.28	508.003
1935.88	489.269
1937.49	499.869
1939.1	507.136
1940.7	509.069
1942.31	493.002
1943.92	506.935
1945.52	495.535
1947.13	496.135
1948.73	494.734
1950.34	488.001
1951.94	494.601
1953.54	504.534
1955.15	499.8
1956.75	477.067
1958.35	488.333
1959.95	484.933
1961.55	500.866
1963.15	500.132
1964.75	500.732
1966.35	502.665
1967.95	497.265
1969.55	491.865
1971.15	485.131
1972.74	481.731
1974.34	497.664
1975.94	485.597
1977.53	474.197
1979.13	510.797
1980.73	488.73
1982.32	479.997
1983.91	487.93
1985.51	489.863
1987.1	495.796
1988.7	502.396
1990.29	487.662
1991.88	490.262
1993.47	495.528
1995.06	500.128
1996.65	508.061
1998.24	511.994
1999.83	483.261
2001.42	475.861
2003.01	491.127
2004.6	490.394
2006.19	482.327
2007.78	482.927
2009.36	480.193
2010.95	482.126
2012.54	492.726
2014.12	486.659
2015.71	487.259
2017.29	492.525
2018.88	481.792
2020.46	487.725
2022.04	490.991
2023.63	483.591
2025.21	491.524
2026.79	475.457
2028.37	478.057
2029.95	491.99
2031.53	480.59
2033.12	475.857
2034.7	487.79
2036.27	483.723
2037.85	460.323
2039.43	484.256
2041.01	472.189
2042.59	489.455
2044.16	483.388
2045.74	481.988
2047.32	467.921
2048.89	486.521
2050.47	475.121
2052.04	474.387
2053.62	474.32
2055.19	464.254
2056.77	462.853
2058.34	467.453
2059.91	483.386
2061.48	457.986
2063.06	477.253
2064.63	478.519
2066.2	475.785
2067.77	455.719
2069.34	463.652
2070.91	468.251
2072.48	470.851
2074.04	460.784
2075.61	488.717
2077.18	442.651
2078.75	465.917
2080.31	467.85
2081.88	471.117
2083.45	455.716
2085.01	465.65
2086.58	447.583
2088.14	471.516
2089.7	452.782
2091.27	468.715
2092.83	470.648
2094.39	453.915
2095.96	467.181
2097.52	455.115
2099.08	455.048
2100.64	470.314
2102.2	452.914
2103.76	453.514
2105.32	460.113
2106.88	460.047
2108.44	473.98
2110	450.579
2111.55	433.179
2113.11	439.112
2114.67	465.712
2116.23	454.979
2117.78	449.578
2119.34	444.845
2120.89	456.778
2122.45	441.403
2124	450.028
2125.55	436.653
2127.11	455.945
2128.66	448.57
2130.21	457.862
2131.76	459.154
2133.32	454.446
2134.87	439.738
2136.42	445.696
2137.97	457.655
2139.52	461.613
2141.07	457.571
2142.62	442.863
2144.16	442.822
2145.71	452.114
2147.26	459.405
2148.81	464.697
2150.35	457.989
2151.9	451.947
2153.44	459.906
2154.99	448.531
2156.53	437.156
2158.08	457.781
2159.62	457.74
2161.17	443.032
2162.71	444.99
2164.25	453.615
2165.79	438.24
2167.34	428.199
2168.88	434.824
2170.42	437.449
2171.96	438.741
2173.5	446.699
2175.04	441.324
2176.58	441.283
2178.11	428.575
2179.65	435.2
2181.19	432.492
2182.73	445.117
2184.26	437.742
2185.8	426.367
2187.34	429.659
2188.87	424.951
2190.41	426.242
2191.94	436.201
2193.48	431.493
2195.01	422.118
2196.54	448.076
2198.07	439.368
2199.61	422.66
2201.14	433.952
2202.67	418.577
2204.2	433.869
2205.73	448.494
2207.26	428.452
2208.79	433.744
2210.32	421.036
2211.85	422.994
2213.38	428.286
2214.91	442.245
2216.43	420.87
2217.96	434.828
2219.49	419.453
2221.01	434.078
2222.54	435.37
2224.06	431.995
2225.59	419.287
2227.11	422.579
2228.64	421.204
2230.16	420.496
2231.68	439.788
2233.21	416.413
2234.73	417.705
2236.25	420.33
2237.77	428.288
2239.29	428.247
2240.81	414.205
2242.33	414.164
2243.85	432.789
2245.37	420.747
2246.89	425.372
2248.41	425.998
2249.93	439.956
2251.44	419.248
2252.96	425.206
2254.48	399.165
2255.99	431.123
2257.51	419.748
2259.02	431.707
2260.54	426.332
2262.05	424.957
2263.57	412.916
2265.08	410.207
2266.59	418.166
2268.1	408.124
2269.62	421.416
2271.13	428.708
2272.64	406.666
2274.15	420.625
2275.66	417.25
2277.17	415.875
2278.68	408.5
2280.19	408.459
2281.7	412.417
2283.2	406.376
2284.71	415.001
2286.22	422.959
2287.73	411.584
2289.23	422.876
2290.74	412.168
2292.24	410.126
2293.75	408.752
2295.25	419.377
2296.76	404.002
2298.26	418.627
2299.76	412.585
2301.27	399.211
2302.77	407.836
2304.27	417.794
2305.77	405.086
2307.27	407.711
2308.77	403.003
2310.28	400.295
2311.77	394.92
2313.27	412.878
2314.77	413.503
2316.27	405.462
2317.77	404.087
2319.27	414.046
2320.76	402.671
2322.26	407.962
2323.76	413.254
2325.25	407.879
2326.75	408.505
2328.24	406.463
2329.74	395.088
2331.23	411.047
2332.73	399.672
2334.22	404.964
2335.71	392.922
2337.2	400.214
2338.7	403.506
2340.19	393.464
2341.68	404.089
2343.17	419.381
2344.66	393.34
2346.15	407.298
2347.64	411.256
2349.13	369.882
2350.62	401.84
2352.1	399.132
2353.59	400.424
2355.08	399.715
2356.56	391.007
2358.05	394.299
2359.54	365.591
2361.02	396.883
2362.51	395.508
2363.99	384.8
2365.48	393.425
2366.96	386.716
2368.44	378.675
2369.93	393.967
2371.41	389.259
2372.89	382.55
2374.37	405.842
2375.85	385.801
2377.33	384.426
2378.81	393.051
2380.29	379.676
2381.77	362.968
2383.25	384.926
2384.73	390.885
2386.21	404.177
2387.69	386.802
2389.16	384.76
2390.64	388.719
2392.12	394.677
2393.59	384.636
2395.07	399.261
2396.54	395.219
2398.02	411.844
2399.49	389.803
2400.96	388.428
2402.44	395.053
2403.91	377.012
2405.38	383.637
2406.85	386.262
2408.33	380.887
2409.8	389.512
2411.27	382.804
2412.74	386.096
2414.21	380.054
2415.68	386.013
2417.15	378.638
2418.62	369.263
2420.08	382.555
2421.55	372.513
2423.02	389.805
2424.49	383.763
2425.95	383.722
2427.42	379.68
2428.88	376.972
2430.35	373.597
2431.81	382.889
2433.28	380.181
2434.74	387.473
2436.21	384.764
2437.67	378.056
2439.13	382.015
2440.59	359.973
2442.05	374.598
2443.52	361.224
2444.98	379.849
2446.44	387.807
2447.9	367.099
2449.36	362.391
2450.81	367.683
2452.27	364.974
2453.73	367.599
2455.19	374.891
2456.65	368.85
2458.1	378.142
2459.56	380.1
2461.02	370.725
2462.47	377.35
2463.93	369.309
2465.38	371.934
2466.84	374.559
2468.29	361.851
2469.74	375.143
2471.2	369.101
2472.65	365.06
2474.1	376.351
2475.55	374.31
2477.01	366.935
2478.46	370.227
2479.91	372.852
2481.36	376.81
2482.81	368.102
2484.26	374.061
2485.71	360.686
2487.15	385.978
2488.6	366.603
2490.05	370.561
2491.5	377.186
2492.94	366.478
2494.39	371.77
2495.84	374.395
2497.28	367.02
2498.73	365.645
2500.17	368.937
2501.61	370.896
2503.06	358.854
2504.5	368.813
2505.95	362.771
2507.39	368.063
2508.83	362.688
2510.27	383.98
2511.71	360.605
2513.15	365.897
2514.59	346.522
2516.03	357.147
2517.47	347.772
2518.91	371.064
2520.35	360.356
2521.79	371.647
2523.23	353.606
2524.66	359.564
2526.1	374.856
2527.54	356.148
2528.97	369.44
2530.41	363.398
2531.84	356.69
2533.28	359.982
2534.71	357.94
2536.15	363.899
2537.58	359.857
2539.01	361.149
2540.45	367.108
2541.88	371.733
2543.31	359.691
2544.74	357.65
2546.17	354.941
2547.6	371.567
2549.04	348.192
2550.47	358.15
2551.89	359.442
2553.32	368.734
2554.75	361.359
2556.18	370.651
2557.61	347.276
2559.04	361.901
2560.46	357.859
2561.89	361.818
2563.31	369.11
2564.74	361.735
2566.17	355.693
2567.59	358.985
2569.01	354.277
2570.44	360.902
2571.86	349.527
2573.28	360.152
2574.71	343.444
2576.13	355.403
2577.55	366.694
2578.97	345.32
2580.39	357.278
2581.81	353.236
2583.23	364.528
2584.65	364.487
2586.07	360.445
2587.49	360.404
2588.91	339.029
2590.33	348.987
2591.74	352.946
2593.16	348.904
2594.58	346.863
2596	353.488
2597.41	342.78
2598.83	352.738
2600.24	361.363
2601.66	345.988
2603.07	355.28
2604.48	343.905
2605.9	359.197
2607.31	340.489
2608.72	351.114
2610.14	353.073
2611.55	349.031
2612.96	348.323
2614.37	358.948
2615.78	354.906
2617.19	347.532
2618.6	350.823
2620.01	354.115
2621.42	354.074
2622.83	356.699
2624.23	344.657
2625.64	345.282
2627.05	335.241
2628.46	355.199
2629.86	349.824
2631.27	346.45
2632.67	337.075
2634.08	347.7
2635.48	352.325
2636.89	355.617
2638.29	352.242
2639.69	355.534
2641.1	354.825
2642.5	360.117
2643.9	347.409
2645.3	353.368
2646.7	355.326
2648.11	336.618
2649.51	343.243
2650.91	345.201
2652.31	338.493
2653.71	340.452
2655.1	344.41
2656.5	340.369
2657.9	348.994
2659.3	348.286
2660.69	342.244
2662.09	355.536
2663.49	340.161
2664.88	341.453
2666.28	338.078
2667.67	339.37
2669.07	341.995
2670.46	339.287
2671.86	329.245
2673.25	342.537
2674.64	330.495
2676.04	340.454
2677.43	321.079
2678.82	356.371
2680.21	348.996
2681.6	339.621
2682.99	337.579
2684.38	328.871
2685.77	333.496
2687.16	335.455
2688.55	328.747
2689.94	337.372
2691.33	344.664
2692.71	331.289
2694.1	329.914
2695.49	347.872
2696.88	345.164
2698.26	339.123
2699.65	318.414
2701.03	341.706
2702.42	346.331
2703.8	334.29
2705.18	332.248
2706.57	344.207
2707.95	334.165
2709.33	336.124
2710.72	334.749
2712.1	350.041
2713.48	331.332
2714.86	339.958
2716.24	313.249
2717.62	335.875
2719	326.5
2720.38	334.458
2721.76	347.083
2723.14	335.042
2724.52	322.334
2725.89	320.959
2727.27	328.25
2728.65	340.876
2730.02	328.834
2731.4	339.459
2732.78	330.751
2734.15	329.376
2735.53	335.335
2736.9	321.96
2738.27	335.918
2739.65	311.21
2741.02	347.168
2742.39	337.127
2743.77	329.085
2745.14	322.377
2746.51	321.669
2747.88	330.294
2749.25	309.586
2750.62	327.544
2751.99	332.17
2753.36	329.461
2754.73	338.087
2756.1	332.712
2757.47	322.67
2758.84	326.629
2760.2	325.92
2761.57	331.212
2762.94	333.171
2764.3	323.129
2765.67	325.088
2767.03	322.379
2768.4	336.338
2769.76	332.296
2771.13	318.921
2772.49	321.547
2773.86	316.172
2775.22	335.464
2776.58	324.089
2777.94	334.047
2779.3	319.339
2780.67	335.297
2782.03	301.923
2783.39	326.548
2784.75	320.506
2786.11	329.131
2787.47	319.09
2788.83	331.715
2790.18	321.007
2791.54	314.965
2792.9	320.257
2794.26	325.549
2795.61	317.507
2796.97	326.132
2798.33	313.424
2799.68	316.049
2801.04	330.674
2802.39	315.966
2803.75	320.591
2805.1	314.55
2806.45	317.842
2807.81	331.133
2809.16	330.425
2810.51	311.05
2811.86	327.676
2813.22	317.634
2814.57	324.926
2815.92	320.884
2817.27	317.509
2818.62	319.468
2819.97	318.76
2821.32	315.385
2822.67	309.343
2824.01	310.635
2825.36	315.927
2826.71	317.885
2828.06	325.177
2829.4	324.469
2830.75	318.427
2832.1	324.386
2833.44	310.344
2834.79	330.303
2836.13	306.261
2837.48	321.553
2838.82	315.512
2840.16	319.47
2841.51	296.095
2842.85	313.387
2844.19	308.012
2845.53	312.637
2846.87	329.929
2848.22	321.221
2849.56	312.513
2850.9	315.138
2852.24	319.763
2853.58	308.388
2854.92	325.013
2856.25	317.638
2857.59	312.93
2858.93	313.555
2860.27	312.18
2861.6	314.805
2862.94	321.431
2864.28	309.389
2865.61	321.348
2866.95	312.639
2868.28	321.931
2869.62	317.89
2870.95	316.515
2872.29	310.473
2873.62	319.098
2874.95	311.057
2876.29	310.349
2877.62	292.974
2878.95	319.599
2880.28	311.557
2881.61	322.183
2882.94	316.808
2884.27	308.766
2885.6	307.391
2886.93	306.016
2888.26	317.308
2889.59	317.267
2890.92	308.558
2892.25	298.517
2893.57	303.142
2894.9	312.434
2896.23	303.726
2897.55	298.351
2898.88	322.976
2900.2	307.601
2901.53	310.226
2902.85	299.518
2904.18	315.476
2905.5	307.435
2906.83	319.393
2908.15	306.685
2909.47	312.644
2910.79	307.935
2912.12	307.227
2913.44	303.852
2914.76	309.144
2916.08	325.769
2917.4	299.728
2918.72	311.686
2920.04	306.978
2921.36	299.603
2922.68	294.895
2923.99	304.187
2925.31	304.812
2926.63	306.77
2927.95	298.729
2929.26	298.687
2930.58	301.313
2931.89	299.271
2933.21	283.896
2934.53	300.521
2935.84	291.813
2937.15	305.771
2938.47	296.397
2939.78	305.688
2941.09	303.647
2942.41	283.605
2943.72	304.23
2945.03	298.856
2946.34	285.481
2947.65	304.106
2948.96	309.398
2950.27	297.356
2951.58	294.648
2952.89	298.606
2954.2	293.232
2955.51	301.19
2956.82	295.815
2958.13	291.107
2959.44	297.732
2960.74	299.691
2962.05	304.316
2963.36	296.941
2964.66	290.233
2965.97	294.191
2967.27	292.816
2968.58	290.108
2969.88	306.733
2971.19	280.025
2972.49	303.983
2973.79	300.609
2975.09	309.234
2976.4	301.192
2977.7	287.151
2979	286.442
2980.3	285.068
2981.6	284.359
2982.9	296.318
2984.2	296.276
2985.5	288.901
2986.8	296.193
2988.1	293.485
2989.4	288.777
2990.7	288.735
2991.99	280.694
2993.29	296.652
2994.59	291.277
2995.88	298.569
2997.18	293.861
2998.48	301.82
2999.77	297.111
3001.07	289.07
3002.36	281.695
3003.66	281.653
3004.95	297.612
3006.24	298.237
3007.54	281.529
3008.83	292.821
3010.12	296.779
3011.41	286.737
3012.7	278.029
3013.99	291.321
3015.28	283.28
3016.57	287.905
3017.86	289.197
3019.15	285.155
3020.44	281.113
3021.73	289.072
3023.02	293.03
3024.31	291.656
3025.6	281.614
3026.88	291.572
3028.17	288.198
3029.46	289.489
3030.74	280.115
3032.03	276.073
3033.31	273.365
3034.6	293.99
3035.88	282.615
3037.16	289.24
3038.45	281.199
3039.73	297.824
3041.01	285.782
3042.3	280.407
3043.58	287.033
3044.86	289.658
3046.14	268.949
3047.42	275.575
3048.7	289.533
3049.98	292.158
3051.26	275.45
3052.54	278.075
3053.82	280.034
3055.1	290.659
3056.38	285.951
3057.65	283.242
3058.93	286.534
3060.21	285.826
3061.48	286.451
3062.76	293.076
3064.04	273.701
3065.31	266.327
3066.59	283.618
3067.86	259.577
3069.13	284.869
3070.41	269.494
3071.68	290.119
3072.95	286.077
3074.23	276.702
3075.5	286.661
3076.77	289.286
3078.04	271.911
3079.31	281.87
3080.58	268.538
3081.86	284.168
3083.12	291.109
3084.39	268.168
3085.66	286.698
3086.93	284.33
3088.2	281.011
3089.47	269.647
3090.74	271.336
3092	283.914
3093.27	281.681
3094.54	271.497
3095.8	281.33
3097.07	280.189
3098.33	281.632
3099.6	261.536
3100.86	279.901
3102.13	272.184
3103.39	266.834
3104.65	270.238
3105.92	278.3
3107.18	264.196
3108.44	278.791
3109.7	267.872
3110.96	283.988
3112.22	281.899
3113.49	269.941
3114.75	271.506
3116.01	275.65
3117.27	259.677
3118.52	268.636
3119.78	274.422
3121.04	265.012
3122.3	264.041
3123.56	258.19
3124.81	268.858
3126.07	272.955
3127.33	281.55
3128.58	269.394
3129.84	272.158
3131.09	268.565
3132.35	270.525
3133.6	275.656
3134.86	266.871
3136.11	267.2
3137.36	255.934
3138.62	268.858
3139.87	264.578
3141.12	264.011
3142.37	270.104
3143.62	270.816
3144.87	257.899
3146.13	269.104
3147.38	264.05
3148.63	264.611
3149.88	268.927
3151.12	265.226
3152.37	267.032
3153.62	270.207
3154.87	264.543
3156.12	261.373
3157.36	264.519
3158.61	258.84
3159.86	268.258
3161.1	266.174
3162.35	264.006
3163.59	270.715
3164.84	273.033
3166.08	264.045
3167.33	261.01
3168.57	263.288
3169.81	266.401
3171.06	262.297
3172.3	260.001
3173.54	262.91
3174.78	255.605
3176.02	263.919
3177.27	260.981
3178.51	268.027
3179.75	263.56
3180.99	265.024
3182.23	257.125
3183.46	265.282
3184.7	263.744
3185.94	260.023
3187.18	259.559
3188.42	258.419
3189.65	257.613
3190.89	256.086
3192.13	260.17
3193.36	263.366
3194.6	262.965
3195.83	258.419
3197.07	258.2
3198.3	255.712
3199.54	257.731
3200.77	260.781
3202.01	251.62
3203.24	262.348
3204.47	256.443
3205.7	263.394
3206.93	250.608
3208.17	258.188
3209.4	260.414
3210.56	265.325
3211.83	253.323
3213.1	255.321
3214.37	254.652
3215.64	255.317
3216.91	253.315
3218.17	258.646
3219.44	261.311
3220.71	247.975
3221.98	254.64
3223.25	255.305
3224.51	259.303
3225.78	262.634
3227.05	263.965
3228.31	251.963
3229.58	250.628
3230.84	257.959
3232.11	255.957
3233.37	245.289
3234.64	259.953
3235.9	254.618
3237.16	240.616
3238.43	245.281
3239.69	234.612
3240.95	251.943
3242.21	243.941
3243.48	250.606
3244.74	249.937
3246	252.602
3247.26	253.267
3248.52	249.265
3249.78	247.929
3251.04	245.261
3252.3	251.259
3253.56	255.923
3254.82	255.921
3256.08	257.919
3257.33	243.917
3258.59	246.582
3259.85	249.247
3261.11	243.245
3262.36	247.909
3263.62	253.907
3264.88	250.572
3266.13	259.237
3267.39	245.235
3268.64	251.899
3269.9	252.564
3271.15	243.229
3272.41	255.893
3273.66	251.225
3274.91	238.556
3276.17	248.554
3277.42	244.552
3278.67	246.55
3279.92	246.548
3281.18	247.213
3282.43	259.211
3283.68	257.875
3284.93	257.873
3286.18	250.538
3287.43	251.203
3288.68	254.534
3289.93	246.532
3291.18	247.197
3292.43	248.528
3293.68	253.193
3294.92	256.524
3296.17	245.855
3297.42	240.52
3298.67	245.185
3299.91	253.183
3301.16	253.181
3302.4	241.845
3303.65	238.51
3304.9	245.175
3306.14	244.506
3307.39	255.837
3308.63	237.169
3309.87	253.833
3311.12	231.831
3312.36	251.163
3313.6	240.494
3314.85	245.825
3316.09	243.823
3317.33	244.488
3318.57	249.819
3319.82	257.151
3321.06	245.815
3322.3	251.147
3323.54	241.145
3324.78	239.809
3326.02	249.141
3327.26	240.472
3328.5	253.803
3329.73	234.468
3330.97	231.799
3332.21	251.797
3333.45	246.462
3334.69	239.127
3335.92	250.458
3337.16	239.123
3338.4	248.454
3339.63	247.119
3340.87	245.783
3342.1	244.448
3343.34	241.113
3344.57	226.444
3345.81	241.775
3347.04	255.107
3348.28	247.771
3349.51	235.769
3350.74	237.767
3351.98	235.765
3353.21	244.43
3354.44	222.428
3355.67	239.759
3356.9	230.424
3358.13	235.755
3359.37	248.42
3360.6	245.751
3361.83	241.083
3363.06	241.081
3364.29	247.745
3365.51	236.41
3366.74	239.075
3367.97	241.739
3369.2	239.071
3370.43	248.402
3371.66	243.733
3372.88	247.064
3374.11	239.729
3375.34	237.727
3376.56	237.725
3377.79	238.39
3379.01	241.055
3380.24	233.719
3381.46	244.384
3382.69	238.382
3383.91	242.38
3385.14	239.044
3386.36	244.376
3387.58	235.04
3388.81	225.038
3390.03	249.036
3391.25	239.034
3392.47	235.032
3393.69	234.364
3394.91	239.695
3396.14	227.693
3397.36	228.358
3398.58	237.022
3399.8	235.02
3401.01	229.018
3402.23	231.016
3403.45	241.681
3404.67	239.012
3405.89	225.677
3407.11	237.008
3408.33	224.34
3409.54	237.004
3410.76	235.002
3411.98	230.334
3413.19	238.332
3414.41	237.663
3415.62	231.661
3416.84	225.659
3418.05	232.99
3419.27	230.988
3420.48	230.986
3421.7	225.651
3422.91	228.982
3424.12	231.647
3425.34	233.645
3426.55	231.643
3427.76	230.974
3428.97	234.306
3430.19	224.97
3431.4	223.635
3432.61	224.966
3433.82	231.631
3435.03	236.296
3436.24	228.96
3437.45	220.292
3438.66	232.29
3439.87	233.621
3441.08	228.286
3442.28	228.95
3443.49	232.282
3444.7	226.946
3445.91	225.611
3447.11	217.609
3448.32	226.94
3449.53	217.605
3450.73	221.603
3451.94	217.601
3453.14	231.599
3454.35	224.93
3455.55	218.928
3456.76	232.26
3457.96	218.258
3459.17	222.256
3460.37	218.254
3461.57	219.585
3462.78	244.25
3463.98	215.581
3465.18	227.579
3466.38	234.91
3467.58	226.908
3468.78	236.24
3469.99	217.571
3471.19	219.569
3472.39	220.234
3473.59	229.565
3474.79	222.23
3475.98	224.228
3477.18	218.892
3478.38	220.224
3479.58	220.888
3480.78	227.553
3481.98	224.218
3483.17	236.216
3484.37	224.214
3485.57	230.878
3486.76	231.543
3487.96	219.541
3489.15	231.539
3490.35	210.204
3491.54	206.868
3492.74	218.866
3493.93	230.198
3495.13	223.529
3496.32	226.194
3497.51	206.192
3498.71	212.19
3499.9	230.188
3501.09	231.519
3502.28	222.184
3503.48	215.515
3504.67	218.846
3505.86	214.178
3507.05	212.842
3508.24	225.507
3509.43	220.838
3510.62	224.836
3511.81	206.834
3513	232.166
3514.19	213.497
3515.37	209.495
3516.56	218.826
3517.75	224.824
3518.94	207.489
3520.12	233.487
3521.31	208.152
3522.5	220.15
3523.68	212.814
3524.87	226.812
3526.05	212.81
3527.24	210.808
3528.43	217.473
3529.61	230.138
3530.79	224.136
3531.98	220.134
3533.16	205.465
3534.34	208.796
3535.53	215.461
3536.71	213.459
3537.89	209.457
3539.07	212.122
3540.25	214.786
3541.44	210.784
3542.62	222.116
3543.8	214.114
3544.98	221.445
3546.16	214.776
3547.34	219.441
3548.52	214.106
3549.7	219.437
3550.88	208.102
3552.05	217.433
3553.23	214.764
3554.41	214.762
3555.59	220.094
3556.76	214.092
3557.94	210.756
3559.12	207.421
3560.29	211.419
3561.47	213.417
3562.64	215.415
3563.82	218.746
3564.99	210.078
3566.17	202.076
3567.34	222.074
3568.52	204.738
3569.69	202.07
3570.86	215.401
3572.04	218.066
3573.21	208.73
3574.38	210.062
3575.55	200.726
3576.72	213.391
3577.9	208.056
3579.07	212.72
3580.24	206.052
3581.41	204.05
3582.58	226.048
3583.75	212.046
3584.92	212.044
3586.08	212.042
3587.25	198.04
3588.42	204.704
3589.59	206.702
3590.76	212.7
3591.92	216.698
3593.09	208.696
3594.26	197.361
3595.42	208.026
3596.59	212.69
3597.76	199.355
3598.92	202.02
3600.09	212.684
3601.25	209.349
3602.42	196.68
3603.58	214.012
3604.74	204.01
3605.91	206.008
3607.07	216.006
3608.23	208.67
3609.4	206.668
3610.56	210
3611.72	209.998
3612.88	204.662
3614.04	213.994
3615.21	201.992
3616.37	211.99
3617.53	212.654
3618.69	206.652
3619.85	199.317
3621	201.982
3622.16	209.98
3623.32	199.978
3624.48	205.976
3625.64	205.974
3626.8	211.972
3627.95	203.97
3629.11	195.301
3630.27	210.632
3631.42	211.297
3632.58	208.628
3633.74	214.626
3634.89	203.291
3636.05	215.956
3637.2	203.287
3638.36	204.618
3639.51	198.616
3640.66	213.281
3641.82	204.612
3642.97	190.61
3644.12	210.608
3645.28	215.939
3646.43	195.271
3647.58	213.935
3648.73	189.267
3649.88	203.265
3651.04	206.596
3652.19	204.594
3653.34	204.592
3654.49	201.923
3655.64	192.588
3656.79	203.919
3657.93	197.917
3659.08	195.249
3660.23	207.913
3661.38	193.245
3662.53	203.909
3663.68	227.241
3664.82	199.239
3665.97	206.57
3667.12	202.568
3668.26	203.899
3669.41	206.564
3670.55	194.562
3671.7	197.893
3672.84	197.891
3673.99	209.889
3675.13	201.887
3676.28	212.552
3677.42	214.55
3678.56	214.548
3679.71	199.213
3680.85	193.211
3681.99	192.542
3683.13	208.54
3684.28	198.538
3685.42	207.203
3686.56	197.867
3687.7	203.199
3688.84	201.863
3689.98	196.528
3691.12	197.859
3692.26	203.191
3693.4	189.855
3694.54	197.187
3695.68	198.518
3696.81	193.849
3697.95	195.181
3699.09	201.179
3700.23	202.51
3701.36	190.508
3702.5	193.173
3703.64	192.504
3704.77	195.835
3705.91	195.167
3707.04	199.165
3708.18	195.829
3709.31	192.494
3710.45	202.492
3711.58	189.823
3712.72	185.821
3713.85	203.819
3714.98	193.151
3716.12	189.815
3717.25	180.48
3718.38	199.811
3719.51	197.143
3720.64	200.474
3721.78	183.805
3722.91	185.137
3724.04	192.468
3725.17	193.799
3726.3	193.797
3727.43	190.462
3728.56	185.793
3729.69	185.791
3730.82	197.789
3731.94	194.454
3733.07	191.119
3734.2	191.117
3735.33	189.781
3736.45	194.446
3737.58	193.777
3738.71	197.775
3739.83	185.107
3740.96	177.105
3742.09	187.103
3743.21	197.767
3744.34	191.765
3745.46	180.43
3746.59	197.095
3747.71	190.426
3748.83	188.424
3749.96	190.422
3751.08	185.753
3752.2	191.085
3753.32	193.749
3754.45	181.747
3755.57	181.079
3756.69	183.743
3757.81	188.408
3758.93	193.739
3760.05	186.404
3761.17	197.069
3762.29	182.4
3763.41	190.398
3764.53	193.063
3765.65	191.727
3766.77	190.392
3767.89	183.057
3769.01	190.388
3770.12	196.386
3771.24	191.717
3772.36	177.715
3773.47	183.713
3774.59	182.378
3775.71	184.376
3776.82	186.374
3777.94	191.039
3779.05	189.037
3780.17	182.368
3781.28	195.699
3782.4	188.364
3783.51	192.362
3784.63	181.027
3785.74	179.691
3786.85	192.356
3787.96	179.021
3789.08	187.685
3790.19	183.017
3791.3	185.015
3792.41	191.013
3793.52	164.344
3794.63	183.675
3795.74	177.007
3796.86	183.005
3797.97	179.669
3799.07	179.667
3800.18	180.332
3801.29	184.997
3802.4	180.328
3803.51	176.326
3804.62	175.657
3805.73	178.322
3806.83	174.987
3807.94	187.651
3809.05	180.983
3810.15	180.981
3811.26	179.645
3812.37	170.977
3813.47	180.975
3814.58	189.639
3815.68	177.637
3816.79	184.969
3817.89	181.633
3818.99	178.965
3820.1	183.629
3821.2	177.627
3822.3	174.292
3823.41	180.957
3824.51	183.621
3825.61	188.286
3826.71	179.617
3827.81	179.615
3828.92	181.613
3830.02	173.611
3831.12	188.943
3832.22	182.274
3833.32	176.272
3834.42	171.603
3835.52	168.268
3836.61	172.933
3837.71	176.931
3838.81	180.262
3839.91	168.26
3841.01	181.591
3842.1	173.589
3843.2	182.254
3844.3	175.585
3845.4	181.583
3846.49	177.581
3847.59	184.246
3848.68	172.244
3849.78	174.242
3850.87	171.573
3851.97	181.571
3853.06	167.569
3854.16	166.901
3855.25	171.565
3856.34	181.563
3857.44	175.561
3858.53	185.559
3859.62	173.557
3860.71	164.889
3861.81	188.887
3862.9	172.885
3863.99	176.216
3865.08	172.881
3866.17	174.212
3867.26	169.543
3868.35	174.875
3869.44	176.873
3870.53	186.871
3871.62	173.535
3872.71	175.533
3873.79	162.198
3874.88	177.529
3875.97	162.194
3877.06	180.859
3878.15	160.857
3879.23	176.188
3880.32	178.853
3881.41	174.85
3882.49	162.849
3883.58	182.18
3884.66	169.511
3885.75	175.509
3886.83	164.174
3887.92	174.838
3889	167.503
3890.08	175.501
3891.17	167.499
3892.25	176.164
3893.33	157.495
3894.42	167.493
3895.5	175.491
3896.58	169.489
3897.66	164.82
3898.74	164.818
3899.82	166.816
3900.91	177.481
3901.99	164.146
3903.07	173.477
3904.15	172.808
3905.23	165.473
3906.3	167.471
3907.38	162.136
3908.46	162.8
3909.54	174.798
3910.62	169.463
3911.7	158.128
3912.77	156.126
3913.85	171.457
3914.93	167.455
3916	159.453
3917.08	170.784
3918.16	169.449
3919.23	160.78
3920.31	167.445
3921.38	167.443
3922.46	167.441
3923.53	164.106
3924.6	154.104
3925.68	175.435
3926.75	167.433
3927.82	162.764
3928.9	164.096
3929.97	163.427
3931.04	165.425
3932.11	158.756
3933.18	162.088
3934.25	162.086
3935.33	160.084
3936.4	163.415
3937.47	164.746
3938.54	170.078
3939.61	158.076
3940.68	154.074
3941.74	151.405
3942.81	156.736
3943.88	166.068
3944.95	170.066
3946.02	161.397
3947.08	158.062
3948.15	160.726
3949.22	164.058
3950.29	168.722
3951.35	160.054
3952.42	164.718
3953.48	162.05
3954.55	171.381
3955.61	162.046
3956.68	158.044
3957.74	162.042
3958.81	160.706
3959.87	166.038
3960.93	148.702
3962	160.034
3963.06	156.032
3964.12	156.696
3965.19	160.694
3966.25	171.359
3967.31	155.357
3968.37	162.022
3969.43	156.02
3970.49	173.351
3971.55	146.682
3972.61	154.014
3973.67	154.678
3974.73	170.676
3975.79	153.341
3976.85	153.339
3977.91	150.004
3978.97	163.335
3980.03	150
3981.08	155.998
3982.14	161.329
3983.2	151.994
3984.25	165.325
3985.31	159.99
3986.37	165.321
3987.42	158.652
3988.48	153.317
3989.53	163.982
3990.59	157.98
3991.64	155.978
3992.7	162.642
3993.75	153.307
3994.81	153.305
3995.86	153.303
3996.91	155.301
3997.97	151.966
3999.02	149.297
