#Acq. time (s)=	30
#Accumulations=	4
#Range (cm-¹)=	60...4000
#Windows=	3
#Auto scanning=	Off
#Autofocus=	Off
#AutoExposure=	Off
#Spike filter=	Multiple accum.
#Delay time (s)=	0
#Binning=	1
#Readout mode=	Signal
#DeNoise=	Off
#ICS correction=	Off
#Dark correction=	Off
#Inst. Process=	Off
#Detector Gain=	Best Dynamic Range
#Detector ADC=	45 kHz       
#Detector temperature (°C)=	-60.1
#Instrument=	XploRA Plus
#Detector=	Syncerity OE
#Objective=	x50_VIS_LWD
#Grating=	1200 (750nm)
#Filter=	10%
#Laser=	638nm_Edge
#Slit (µm)=	100 
#Hole (µm)=	300 
#Temperature=	0
#StageXY=	75x50mm Scan+
#StageZ=	Z motor
#X (µm)=	0
#Y (µm)=	0
#Z (µm)=	42.9
#Full time(mm:ss)=	6:14
#Project=	
#Sample=	
#Site=	
#Title=	Quartz_16_15_32_2026_03_30_4_30 s_638nm_Edge_1200 (750nm)_x50_VIS_LWD_100 µm_300 µm_10%
#Remark=	
#Date=	30.03.2026 16:16
#Acquired=	30.03.2026 16:16:08
#AxisType[0]=Intens
#AxisUnit[0]=Cnt
#AxisType[1]=Spectr
#AxisUnit[1]=1/cm
62.2295	1479.67
64.3928	1511.65
66.5569	1416.96
68.719	1393.6
70.882	1283.58
73.0428	1330.23
75.2031	1314.21
77.3628	1280.85
79.5219	1287.5
81.6818	1248.81
83.8397	1182.79
85.997	1202.1
88.1522	1161.41
90.3083	1157.39
92.4638	1138.7
94.6187	1102.02
96.773	1113.33
98.9252	1099.31
101.078	1122.62
103.231	1075.93
105.381	1037.24
107.533	1098.56
109.682	1043.2
111.831	1025.85
113.98	1030.49
116.128	1003.81
118.274	1004.45
120.421	1027.1
122.566	1029.74
124.712	1003.05
126.856	1010.37
129	995.012
131.143	1060.99
133.286	1036.97
135.428	1008.28
137.57	1007.59
139.709	1045.57
141.85	1080.22
143.988	1076.86
146.127	1113.51
148.264	1139.49
150.402	1240.8
152.538	1446.11
154.674	1737.43
156.81	1916.74
158.944	1930.72
161.078	1782.7
163.211	1500.67
165.343	1261.99
167.475	1142.63
169.606	1082.61
171.737	1032.59
173.866	1017.24
175.995	979.881
178.124	956.526
180.253	974.505
182.379	949.151
184.506	942.463
186.631	953.775
188.756	952.421
190.881	957.733
193.004	981.045
195.127	961.691
197.251	924.336
199.373	926.315
201.494	945.628
203.614	939.606
205.734	912.252
207.853	916.231
209.971	928.876
212.089	912.855
214.206	921.501
216.323	905.48
218.438	901.459
220.554	901.437
222.668	884.083
224.783	884.062
226.895	898.041
229.007	878.686
231.12	891.999
233.231	907.311
235.341	955.956
237.451	938.602
239.56	911.914
241.669	907.226
243.777	923.205
245.884	937.184
247.991	909.163
250.096	938.475
252.202	959.121
254.307	1000.43
256.41	1006.41
258.514	1002.39
260.616	1034.37
262.719	1038.35
264.82	1070.33
266.92	1115.64
269.021	1191.62
271.12	1235.6
273.219	1340.91
275.317	1508.22
277.414	1763.53
279.511	2142.18
281.607	2502.16
283.701	2730.8
285.797	2722.78
287.891	2456.09
289.984	2008.07
292.077	1619.39
294.17	1385.36
296.261	1231.34
298.351	1115.99
300.442	1063.3
302.531	1041.95
304.62	1008.59
306.708	1031.24
308.795	965.217
310.882	961.196
312.968	933.175
315.054	945.154
317.139	909.133
319.224	895.778
321.308	917.757
323.39	913.736
325.473	908.382
327.553	873.694
329.635	891.006
331.715	882.318
333.794	884.964
335.874	848.943
337.952	866.255
340.03	858.234
342.107	864.213
344.183	858.192
346.259	879.504
348.334	872.149
350.409	865.462
352.483	849.44
354.557	884.753
356.628	834.065
358.701	860.711
360.771	859.356
362.842	863.335
364.912	876.647
366.982	841.293
369.05	879.272
371.118	873.25
373.185	859.896
375.251	829.208
377.317	821.854
379.383	883.166
381.448	852.478
383.512	841.79
385.576	874.436
387.639	865.748
389.7	835.06
391.762	839.706
393.822	838.352
395.883	830.997
397.942	842.309
400.001	820.288
402.06	824.934
404.117	857.579
406.174	840.225
408.23	822.87
410.286	824.183
412.341	830.828
414.396	809.474
416.45	845.453
418.502	839.431
420.554	833.41
422.607	832.056
424.657	814.701
426.708	826.014
428.758	822.659
430.808	821.971
432.856	847.284
434.904	825.263
436.951	825.241
438.997	827.887
441.043	833.199
443.089	828.511
445.133	827.824
447.178	809.802
449.222	826.448
451.263	807.76
453.306	793.739
455.348	830.385
457.388	798.364
459.429	793.676
461.468	801.655
463.507	818.967
465.545	802.946
467.584	804.925
469.621	801.57
471.657	790.216
473.693	788.861
475.727	792.84
477.761	796.152
479.796	790.131
481.829	798.777
483.861	804.089
485.893	800.068
487.924	778.047
489.955	807.359
491.985	791.338
494.014	809.983
496.044	788.629
498.072	825.275
500.099	811.253
502.126	793.899
504.152	817.211
506.178	817.857
508.201	793.836
510.226	799.815
512.25	796.46
514.272	773.772
516.295	788.418
518.316	801.73
520.338	791.042
522.358	817.688
524.378	767
526.396	802.312
528.416	774.291
530.434	767.603
532.451	790.916
534.467	779.561
536.483	785.54
538.499	777.519
540.514	783.498
542.527	775.477
544.541	780.789
546.553	768.101
548.566	798.08
550.577	776.059
552.588	786.038
554.599	770.017
556.609	777.996
558.618	787.974
560.626	758.62
562.634	779.932
564.64	773.911
566.646	771.89
568.653	789.202
570.657	778.514
572.662	770.493
574.667	753.139
576.67	791.784
578.672	759.097
580.675	774.409
582.676	756.388
584.677	771.7
586.677	769.679
588.676	766.991
590.675	748.303
592.674	753.615
594.671	754.261
596.668	784.24
598.665	782.885
600.66	750.864
602.656	767.51
604.65	774.822
606.643	758.801
608.637	759.447
610.63	739.425
612.622	752.071
614.613	754.716
616.604	771.362
618.594	768.674
620.584	743.32
622.571	737.299
624.56	765.278
626.548	745.256
628.534	765.235
630.52	756.548
632.507	757.193
634.491	751.172
636.476	770.484
638.459	750.463
640.444	729.775
642.426	765.088
644.407	750.4
646.388	755.712
648.369	745.024
650.35	755.003
652.328	736.982
654.308	750.294
656.286	763.606
658.264	756.919
660.24	740.898
662.216	749.543
664.193	725.522
666.168	744.168
668.143	730.146
670.117	746.792
672.089	754.771
674.061	748.75
676.034	728.729
678.006	724.041
679.975	735.353
681.946	720.665
683.915	740.644
685.884	725.29
687.853	734.602
689.82	736.581
691.787	733.226
693.753	759.872
695.719	741.184
697.684	749.83
699.649	756.475
701.612	765.787
703.576	745.766
705.539	778.412
707.5	852.391
709.461	1041.04
711.423	1521.02
713.383	1742.99
715.342	1741.64
717.301	1576.29
719.259	1196.26
721.217	926.243
723.174	806.222
725.131	764.201
727.087	769.513
729.041	736.825
730.996	742.137
732.95	729.45
734.904	726.095
736.856	728.074
738.808	736.053
740.761	722.698
742.711	729.344
744.662	718.656
746.611	740.635
748.559	705.947
750.508	737.259
752.456	715.905
754.403	715.217
756.35	722.53
758.295	706.508
760.241	703.821
762.186	727.133
764.13	705.778
766.073	715.757
768.017	721.736
769.959	743.048
771.9	735.694
773.841	701.673
775.782	698.985
777.722	722.297
779.66	707.609
781.6	726.922
783.537	702.901
785.474	730.213
787.412	719.525
789.348	704.837
791.283	718.816
793.218	732.795
795.152	711.441
797.086	727.419
799.02	704.065
800.951	715.377
802.883	713.356
804.814	704.668
806.745	689.314
808.675	719.293
810.604	713.938
812.534	715.917
814.462	707.229
816.389	716.542
818.316	697.854
820.243	716.499
822.168	711.812
824.093	713.79
826.018	698.436
827.941	701.082
829.865	684.394
831.787	697.706
833.709	687.018
835.632	702.997
837.552	692.309
839.473	704.288
841.392	706.267
843.311	713.579
845.229	720.892
847.147	711.537
849.065	711.516
850.981	712.828
852.897	698.807
854.812	694.786
856.727	712.765
858.642	703.41
860.555	698.723
862.468	688.035
864.38	694.014
866.292	702.659
868.203	707.305
870.113	671.284
872.024	690.596
873.932	723.241
875.842	701.22
877.75	700.533
879.657	699.845
881.565	707.157
883.471	691.803
885.376	703.781
887.282	725.76
889.186	679.739
891.089	694.385
892.993	697.03
894.896	705.009
896.797	691.655
898.7	694.3
900.6	690.946
902.5	678.258
904.399	680.904
906.298	720.216
908.197	699.528
910.095	678.84
911.992	700.152
913.889	694.131
915.786	687.444
917.68	692.089
919.576	693.401
921.47	700.714
923.363	690.026
925.257	688.671
927.149	707.984
929.041	698.629
930.932	691.941
932.823	683.92
934.713	686.566
936.602	684.545
938.491	686.524
940.379	685.169
942.267	677.148
944.154	704.46
946.04	690.439
947.927	681.751
949.812	688.397
951.696	710.376
953.58	704.355
955.463	686.333
957.346	680.312
959.229	693.625
961.11	702.937
962.991	672.916
964.871	688.228
966.752	682.207
968.631	672.186
970.51	691.498
972.388	697.477
974.265	676.122
976.142	667.435
978.019	666.08
979.893	681.392
981.769	682.704
983.643	688.683
985.518	687.329
987.391	703.308
989.263	679.953
991.135	689.932
993.006	677.245
994.877	685.89
996.748	703.202
998.618	687.181
1000.49	657.827
1002.35	688.472
1004.22	675.118
1006.09	688.43
1007.96	713.742
1009.82	695.721
1011.69	689.7
1013.55	713.679
1015.42	708.324
1017.28	712.97
1019.15	710.282
1021.01	712.261
1022.87	695.573
1024.73	699.552
1026.59	726.198
1028.45	697.51
1030.31	693.489
1032.17	690.801
1034.03	694.78
1035.89	704.092
1037.75	714.071
1039.6	698.05
1041.46	695.362
1043.31	681.341
1045.17	685.987
1047.02	683.299
1048.88	706.611
1050.73	695.923
1052.58	691.235
1054.43	699.214
1056.28	728.527
1058.14	709.172
1059.99	691.151
1061.84	701.13
1063.68	713.775
1065.53	785.088
1067.38	802.4
1069.23	799.712
1071.08	827.691
1072.92	819.003
1074.77	809.649
1076.61	840.961
1078.46	927.607
1080.3	1128.92
1082.14	1706.23
1083.99	3869.54
1085.83	9952.86
1087.67	12899.5
1089.51	12330.8
1091.35	10501.5
1093.19	6139.44
1095.03	1993.42
1096.87	1116.06
1098.7	918.041
1100.54	830.02
1102.38	795.999
1104.21	755.978
1106.05	727.29
1107.88	744.602
1109.72	720.581
1111.55	723.893
1113.39	697.872
1115.22	689.184
1117.05	700.496
1118.88	704.475
1120.71	688.454
1122.54	710.433
1124.37	723.745
1126.2	693.724
1128.03	698.37
1129.86	705.015
1131.69	704.328
1133.51	700.973
1135.34	692.285
1137.16	704.264
1138.99	693.576
1140.81	708.889
1142.64	694.867
1144.46	701.513
1146.28	690.825
1148.1	690.804
1149.93	688.783
1151.75	688.095
1153.57	658.741
1155.39	700.053
1157.21	682.698
1159.03	708.011
1160.84	691.99
1162.66	661.302
1164.48	687.281
1166.29	678.593
1168.11	701.238
1169.93	675.884
1171.74	676.53
1173.55	669.175
1175.37	671.821
1177.18	671.8
1178.99	672.445
1180.8	691.757
1182.61	687.07
1184.42	677.048
1186.24	677.694
1188.04	681.006
1189.85	650.985
1191.66	689.631
1193.47	691.61
1195.28	674.922
1197.08	656.901
1198.89	692.213
1200.69	699.525
1202.5	684.171
1204.3	683.483
1206.11	670.795
1207.91	676.774
1209.71	686.753
1211.51	686.065
1213.31	692.044
1215.12	700.689
1216.92	680.002
1218.72	697.314
1220.51	678.626
1222.31	698.605
1224.11	713.251
1225.91	705.896
1227.7	687.208
1229.5	703.854
1231.3	699.166
1233.09	686.478
1234.88	666.457
1236.68	675.769
1238.47	679.748
1240.26	697.06
1242.06	691.039
1243.85	696.352
1245.64	687.664
1247.43	687.643
1249.22	722.288
1251.01	688.267
1252.8	696.246
1254.59	679.558
1256.37	680.204
1258.16	693.516
1259.95	701.495
1261.73	670.807
1263.52	698.786
1265.3	695.432
1267.08	668.744
1268.87	676.056
1270.65	701.368
1272.43	688.014
1274.22	689.993
1276	680.638
1277.78	687.95
1279.56	694.596
1281.34	683.242
1283.12	686.554
1284.89	700.533
1286.67	669.178
1288.45	697.157
1290.23	686.469
1292	683.781
1293.78	691.76
1295.55	679.073
1297.33	686.385
1299.1	687.03
1300.87	675.009
1302.65	683.655
1304.42	681.634
1306.19	672.946
1307.96	678.925
1309.73	684.237
1311.5	688.883
1313.27	710.195
1315.04	682.84
1316.81	699.486
1318.58	684.798
1320.34	690.777
1322.11	703.422
1323.87	678.735
1325.64	677.38
1327.4	680.026
1329.17	648.005
1330.93	674.65
1332.7	695.296
1334.46	677.275
1336.22	677.92
1337.98	687.232
1339.74	689.211
1341.5	689.19
1343.26	673.836
1345.02	658.481
1346.78	675.127
1348.54	701.772
1350.29	674.418
1352.05	671.064
1353.81	661.709
1355.56	679.688
1357.32	683.667
1359.07	677.646
1360.83	680.958
1362.58	695.604
1364.33	668.916
1366.08	676.895
1367.84	678.207
1369.59	671.519
1371.34	689.498
1373.09	670.143
1374.84	700.789
1376.59	700.768
1378.34	660.747
1380.08	675.392
1381.83	674.038
1383.58	673.35
1385.32	677.996
1387.07	687.975
1388.81	674.62
1390.56	675.932
1392.3	665.245
1394.05	670.557
1395.79	666.536
1397.53	653.181
1399.27	685.827
1401.01	689.806
1402.75	667.784
1404.49	652.43
1406.23	678.409
1407.97	684.388
1409.71	695.033
1411.45	683.012
1413.19	665.658
1414.92	671.637
1416.66	663.616
1418.39	676.261
1420.13	686.24
1421.86	680.219
1423.6	680.864
1425.33	686.843
1427.06	676.822
1428.8	688.801
1430.53	676.113
1432.26	682.092
1433.99	725.404
1435.72	770.05
1437.45	822.696
1439.18	814.674
1440.9	777.987
1442.63	734.632
1444.36	697.278
1446.09	659.257
1447.81	679.235
1449.54	652.548
1451.26	651.86
1452.99	653.839
1454.71	663.818
1456.43	648.463
1458.16	652.442
1459.88	645.754
1461.6	638.4
1463.32	634.379
1465.04	649.691
1466.76	651.003
1468.48	654.982
1470.2	626.294
1471.92	631.607
1473.64	648.919
1475.35	648.231
1477.07	640.877
1478.79	654.189
1480.5	660.834
1482.22	633.48
1483.93	637.459
1485.64	638.771
1487.36	631.417
1489.07	645.395
1490.78	634.041
1492.49	655.353
1494.21	631.999
1495.92	627.978
1497.63	639.29
1499.34	630.602
1501.04	651.248
1502.75	635.226
1504.46	636.539
1506.17	625.851
1507.87	627.83
1509.58	650.475
1511.29	631.121
1512.99	624.433
1514.7	635.745
1516.4	631.058
1518.1	607.036
1519.81	626.349
1521.51	636.994
1523.21	644.973
1524.91	631.619
1526.61	650.264
1528.31	603.576
1530.01	622.222
1531.71	616.867
1533.41	637.513
1535.11	610.825
1536.8	620.137
1538.5	636.116
1540.2	629.429
1541.89	633.407
1543.59	634.053
1545.28	598.032
1546.98	635.344
1548.67	632.656
1550.36	628.635
1552.06	623.281
1553.75	605.926
1555.44	611.905
1557.13	625.217
1558.82	614.53
1560.51	614.508
1562.2	633.821
1563.89	633.8
1565.58	619.779
1567.26	620.424
1568.95	615.736
1570.64	589.715
1572.32	602.361
1574.01	610.34
1575.69	624.318
1577.38	617.631
1579.06	604.943
1580.74	624.922
1582.43	602.234
1584.11	602.213
1585.79	608.859
1587.47	610.171
1589.15	612.816
1590.83	606.795
1592.51	602.107
1594.19	630.086
1595.87	614.065
1597.55	606.711
1599.22	599.356
1600.9	600.668
1602.58	597.314
1604.25	623.293
1605.93	604.605
1607.6	617.251
1609.27	593.229
1610.95	599.208
1612.62	584.521
1614.29	609.166
1615.97	599.812
1617.64	614.457
1619.31	594.436
1620.98	591.082
1622.65	593.061
1624.32	577.039
1625.98	601.018
1627.65	595.664
1629.32	594.309
1630.99	563.622
1632.65	572.267
1634.32	596.913
1635.98	598.225
1637.65	580.87
1639.31	578.849
1640.98	582.828
1642.64	574.141
1644.3	580.119
1645.97	584.765
1647.63	576.077
1649.29	568.056
1650.95	576.702
1652.61	577.347
1654.27	567.993
1655.93	575.972
1657.58	569.95
1659.24	593.929
1660.9	581.908
1662.56	562.554
1664.21	571.866
1665.87	583.845
1667.52	577.157
1669.18	571.803
1670.83	590.448
1672.49	559.094
1674.14	587.073
1675.79	578.385
1677.44	597.697
1679.09	566.343
1680.75	586.988
1682.39	563.634
1684.05	587.613
1685.69	579.591
1687.34	552.904
1688.99	574.216
1690.64	579.528
1692.29	568.174
1693.93	563.486
1695.58	572.131
1697.22	571.444
1698.87	565.423
1700.51	576.068
1702.16	567.38
1703.8	567.359
1705.44	565.338
1707.09	567.984
1708.73	567.296
1710.37	553.941
1712.01	549.254
1713.65	555.899
1715.29	559.878
1716.93	571.19
1718.57	581.836
1720.2	583.148
1721.84	547.127
1723.48	532.439
1725.12	551.751
1726.75	555.064
1728.39	553.709
1730.02	560.355
1731.66	553.667
1733.29	556.979
1734.92	555.625
1736.56	566.27
1738.19	550.249
1739.82	556.895
1741.45	569.54
1743.08	588.186
1744.71	594.165
1746.34	610.81
1747.97	644.122
1749.6	711.435
1751.23	694.747
1752.85	718.726
1754.48	660.705
1756.11	644.684
1757.73	609.996
1759.36	606.641
1760.98	592.62
1762.61	547.897
1764.23	546.54
1765.85	563.837
1767.48	538.833
1769.1	543.723
1770.72	551.328
1772.34	531.172
1773.96	548.727
1775.58	534.67
1777.2	541.373
1778.82	542.025
1780.44	534.887
1782.06	548.133
1783.67	539.498
1785.29	535.776
1786.91	528.945
1788.52	539.751
1790.14	528.227
1791.75	520.07
1793.37	527.383
1794.98	526.565
1796.59	536.865
1798.21	537.877
1799.82	532.99
1801.43	539.12
1803.04	522.467
1804.65	520.664
1806.26	515.931
1807.87	528.599
1809.48	515.213
1811.09	521.523
1812.7	512.521
1814.3	501.772
1815.91	509.364
1817.52	508.493
1819.12	517.36
1820.73	523.628
1822.34	520.961
1823.94	515.567
1825.54	536.279
1827.15	511.024
1828.75	501.949
1830.35	512.044
1831.95	512.976
1833.55	498.771
1835.15	493.912
1836.75	501.026
1838.35	509.201
1839.95	501.555
1841.55	493.183
1843.15	509.703
1844.75	508.611
1846.34	498.998
1847.94	491.227
1849.54	496.275
1851.13	496.832
1852.73	497.628
1854.32	503.31
1855.92	488.005
1857.51	476.989
1859.1	495.279
1860.69	488.898
1862.29	491.985
1863.88	496.32
1865.47	492.229
1867.06	504.029
1868.65	495.083
1870.24	487.455
1871.83	490.289
1873.41	502.483
1875	495.167
1876.59	493.418
1878.18	485.361
1879.76	491.675
1881.35	486.324
1882.93	483.559
1884.52	482.871
1886.1	492.84
1887.68	493.384
1889.27	496.918
1890.85	490.984
1892.43	487.004
1894.01	491.352
1895.59	486.395
1897.18	491.605
1898.75	474.672
1900.33	484.654
1901.91	486.966
1903.49	492.144
1905.07	483.023
1906.65	491.672
1908.22	496.013
1909.8	483.887
1911.38	482.184
1912.95	484.036
1914.53	478.511
1916.1	475.665
1917.67	485.194
1919.25	486.956
1920.82	483.326
1922.39	490.689
1923.96	488.989
1925.53	478.838
1927.1	470.233
1928.68	477.262
1929.45	487.468
1931.06	468.779
1932.67	476.09
1934.28	486.068
1935.88	471.379
1937.49	468.023
1939.1	475.334
1940.7	478.646
1942.31	480.623
1943.92	494.601
1945.52	478.579
1947.13	473.89
1948.73	473.201
1950.34	475.846
1951.94	473.823
1953.54	469.801
1955.15	460.446
1956.75	483.09
1958.35	467.734
1959.95	471.046
1961.55	475.023
1963.15	473.668
1964.75	478.979
1966.35	472.29
1967.95	487.601
1969.55	453.579
1971.15	474.223
1972.74	454.868
1974.34	484.846
1975.94	472.157
1977.53	476.801
1979.13	470.112
1980.73	464.09
1982.32	472.068
1983.91	466.046
1985.51	461.357
1987.1	462.001
1988.7	462.646
1990.29	464.623
1991.88	460.601
1993.47	448.579
1995.06	479.89
1996.65	466.534
1998.24	471.179
1999.83	466.49
2001.42	480.468
2003.01	459.112
2004.6	467.09
2006.19	473.068
2007.78	473.046
2009.36	463.023
2010.95	458.334
2012.54	470.979
2014.12	442.957
2015.71	449.601
2017.29	460.912
2018.88	457.557
2020.46	483.534
2022.04	472.179
2023.63	452.157
2025.21	450.801
2026.79	466.112
2028.37	448.09
2029.95	461.401
2031.53	450.712
2033.12	468.023
2034.7	445.334
2036.27	447.312
2037.85	457.29
2039.43	455.268
2041.01	454.579
2042.59	461.223
2044.16	425.868
2045.74	456.512
2047.32	447.823
2048.89	445.801
2050.47	440.446
2052.04	462.423
2053.62	445.734
2055.19	464.379
2056.77	459.69
2058.34	452.334
2059.91	446.312
2061.48	450.957
2063.06	435.601
2064.63	460.246
2066.2	428.223
2067.77	440.201
2069.34	438.846
2070.91	436.823
2072.48	432.801
2074.04	442.779
2075.61	437.423
2077.18	432.734
2078.75	433.379
2080.31	434.69
2081.88	432.001
2083.45	443.312
2085.01	437.29
2086.58	433.268
2088.14	403.246
2089.7	427.89
2091.27	433.868
2092.83	433.846
2094.39	423.823
2095.96	431.801
2097.52	449.779
2099.08	438.423
2100.64	427.734
2102.2	429.712
2103.76	435.023
2105.32	432.334
2106.88	445.646
2108.44	437.623
2110	450.268
2111.55	424.912
2113.11	445.557
2114.67	440.868
2116.23	449.512
2117.78	428.157
2119.34	438.801
2120.89	444.112
2122.45	438.771
2124	423.43
2125.55	430.755
2127.11	427.414
2128.66	429.406
2130.21	438.064
2131.76	447.39
2133.32	434.715
2134.87	436.707
2136.42	441.366
2137.97	427.358
2139.52	438.016
2141.07	436.008
2142.62	433.334
2144.16	453.326
2145.71	437.318
2147.26	446.643
2148.81	449.302
2150.35	435.961
2151.9	442.619
2153.44	442.611
2154.99	435.27
2156.53	431.929
2158.08	431.254
2159.62	433.913
2161.17	421.238
2162.71	437.897
2164.25	421.889
2165.79	438.547
2167.34	411.873
2168.88	424.531
2170.42	431.19
2171.96	421.182
2173.5	417.841
2175.04	421.833
2176.58	411.825
2178.11	431.15
2179.65	419.809
2181.19	416.468
2182.73	425.126
2184.26	430.452
2185.8	415.777
2187.34	409.769
2188.87	419.761
2190.41	404.42
2191.94	423.745
2193.48	420.404
2195.01	402.396
2196.54	411.721
2198.07	406.38
2199.61	409.705
2201.14	403.697
2202.67	423.689
2204.2	405.015
2205.73	420.34
2207.26	386.332
2208.79	415.657
2210.32	413.649
2211.85	412.308
2213.38	414.967
2214.91	416.959
2216.43	408.951
2217.96	422.943
2219.49	408.935
2221.01	410.927
2222.54	410.919
2224.06	411.577
2225.59	400.236
2227.11	396.895
2228.64	406.887
2230.16	411.546
2231.68	393.538
2233.21	406.196
2234.73	416.855
2236.25	403.514
2237.77	406.839
2239.29	408.164
2240.81	412.823
2242.33	409.482
2243.85	378.14
2245.37	407.466
2246.89	404.791
2248.41	411.45
2249.93	404.775
2251.44	402.1
2252.96	416.092
2254.48	396.751
2255.99	408.076
2257.51	408.068
2259.02	412.727
2260.54	410.052
2262.05	392.711
2263.57	408.703
2265.08	401.362
2266.59	408.687
2268.1	400.679
2269.62	397.338
2271.13	394.663
2272.64	404.655
2274.15	407.981
2275.66	395.973
2277.17	396.631
2278.68	397.29
2280.19	396.615
2281.7	396.607
2283.2	411.933
2284.71	387.925
2286.22	415.25
2287.73	402.576
2289.23	407.901
2290.74	397.893
2292.24	413.885
2293.75	403.21
2295.25	399.202
2296.76	405.194
2298.26	389.186
2299.76	383.178
2301.27	408.504
2302.77	404.496
2304.27	397.154
2305.77	379.813
2307.27	386.472
2308.77	384.464
2310.28	395.789
2311.77	409.114
2313.27	389.773
2314.77	390.432
2316.27	395.09
2317.77	393.082
2319.27	391.741
2320.76	388.4
2322.26	390.392
2323.76	406.384
2325.25	389.043
2326.75	385.035
2328.24	385.027
2329.74	390.352
2331.23	398.344
2332.73	393.669
2334.22	402.995
2335.71	396.987
2337.2	377.645
2338.7	380.971
2340.19	395.629
2341.68	384.955
2343.17	392.947
2344.66	396.272
2346.15	392.931
2347.64	391.59
2349.13	386.915
2350.62	386.24
2352.1	398.899
2353.59	390.224
2355.08	388.883
2356.56	381.542
2358.05	362.867
2359.54	386.859
2361.02	388.851
2362.51	391.51
2363.99	396.835
2365.48	389.494
2366.96	390.819
2368.44	388.811
2369.93	379.47
2371.41	382.795
2372.89	390.121
2374.37	378.112
2375.85	384.771
2377.33	372.096
2378.81	382.755
2380.29	382.747
2381.77	392.073
2383.25	383.398
2384.73	382.057
2386.21	375.382
2387.69	376.707
2389.16	388.699
2390.64	385.358
2392.12	379.35
2393.59	374.675
2395.07	385.334
2396.54	384.659
2398.02	410.651
2399.49	367.977
2400.96	360.635
2402.44	366.627
2403.91	362.62
2405.38	374.612
2406.85	376.604
2408.33	370.596
2409.8	371.254
2411.27	371.246
2412.74	367.905
2414.21	376.564
2415.68	383.222
2417.15	377.881
2418.62	372.54
2420.08	374.532
2421.55	359.19
2423.02	363.849
2424.49	364.508
2425.95	380.5
2427.42	359.158
2428.88	364.484
2430.35	367.809
2431.81	373.801
2433.28	370.46
2434.74	376.452
2436.21	369.777
2437.67	359.769
2439.13	369.095
2440.59	367.087
2442.05	370.412
2443.52	381.071
2444.98	365.063
2446.44	359.055
2447.9	361.047
2449.36	377.705
2450.81	364.364
2452.27	367.689
2453.73	371.015
2455.19	365.673
2456.65	378.999
2458.1	368.324
2459.56	374.316
2461.02	350.975
2462.47	374.967
2463.93	373.626
2465.38	367.618
2466.84	354.276
2468.29	360.268
2469.74	362.927
2471.2	366.919
2472.65	364.911
2474.1	367.57
2475.55	366.228
2477.01	374.22
2478.46	366.879
2479.91	368.871
2481.36	374.196
2482.81	367.522
2484.26	370.18
2485.71	374.172
2487.15	365.498
2488.6	356.157
2490.05	359.482
2491.5	372.141
2492.94	366.133
2494.39	368.791
2495.84	355.45
2497.28	360.109
2498.73	375.434
2500.17	371.426
2501.61	370.751
2503.06	371.41
2504.5	372.069
2505.95	378.061
2507.39	379.386
2508.83	366.711
2510.27	352.037
2511.71	357.362
2513.15	363.354
2514.59	358.013
2516.03	364.005
2517.47	362.664
2518.91	370.656
2520.35	353.981
2521.79	347.306
2523.23	361.298
2524.66	356.624
2526.1	358.616
2527.54	345.941
2528.97	359.933
2530.41	348.592
2531.84	359.917
2533.28	376.576
2534.71	365.234
2536.15	355.226
2537.58	355.885
2539.01	361.21
2540.45	370.536
2541.88	369.194
2543.31	365.853
2544.74	341.178
2546.17	359.837
2547.6	365.163
2549.04	365.821
2550.47	361.147
2551.89	363.805
2553.32	353.131
2554.75	359.123
2556.18	358.448
2557.61	375.773
2559.04	345.099
2560.46	367.091
2561.89	356.416
2563.31	359.075
2564.74	351.067
2566.17	353.059
2567.59	385.717
2569.01	367.043
2570.44	368.368
2571.86	359.694
2573.28	353.019
2574.71	348.344
2576.13	360.336
2577.55	360.328
2578.97	350.32
2580.39	359.646
2581.81	351.638
2583.23	355.63
2584.65	351.622
2586.07	353.614
2587.49	348.939
2588.91	362.931
2590.33	360.923
2591.74	353.582
2593.16	338.907
2594.58	352.899
2596	346.891
2597.41	362.216
2598.83	340.875
2600.24	348.867
2601.66	348.859
2603.07	333.518
2604.48	370.177
2605.9	357.502
2607.31	349.494
2608.72	346.153
2610.14	352.811
2611.55	355.47
2612.96	364.129
2614.37	347.454
2615.78	339.446
2617.19	355.438
2618.6	356.097
2620.01	353.422
2621.42	358.747
2622.83	358.073
2624.23	348.731
2625.64	349.39
2627.05	346.049
2628.46	346.708
2629.86	338.033
2631.27	356.692
2632.67	341.35
2634.08	345.342
2635.48	342.001
2636.89	361.993
2638.29	364.652
2639.69	361.31
2641.1	354.636
2642.5	357.294
2643.9	341.953
2645.3	353.278
2646.7	360.604
2648.11	355.262
2649.51	345.254
2650.91	349.246
2652.31	317.905
2653.71	358.564
2655.1	347.889
2656.5	347.881
2657.9	354.54
2659.3	344.532
2660.69	335.857
2662.09	353.183
2663.49	340.508
2664.88	356.5
2666.28	343.825
2667.67	343.151
2669.07	336.476
2670.46	347.801
2671.86	353.793
2673.25	332.452
2674.64	355.111
2676.04	339.103
2677.43	343.095
2678.82	347.753
2680.21	345.079
2681.6	338.404
2682.99	341.063
2684.38	335.722
2685.77	334.38
2687.16	341.039
2688.55	346.364
2689.94	349.023
2691.33	342.348
2692.71	345.674
2694.1	341.666
2695.49	348.991
2696.88	340.983
2698.26	351.642
2699.65	356.3
2701.03	353.626
2702.42	340.284
2703.8	344.276
2705.18	334.935
2706.57	323.594
2707.95	340.253
2709.33	338.911
2710.72	327.57
2712.1	350.229
2713.48	327.554
2714.86	355.546
2716.24	336.205
2717.62	340.197
2719	344.855
2720.38	336.181
2721.76	348.173
2723.14	336.831
2724.52	332.157
2725.89	344.815
2727.27	334.807
2728.65	341.466
2730.02	339.458
2731.4	328.117
2732.78	332.109
2734.15	346.101
2735.53	330.093
2736.9	334.752
2738.27	332.744
2739.65	349.402
2741.02	340.061
2742.39	336.72
2743.77	340.712
2745.14	341.37
2746.51	329.362
2747.88	347.354
2749.25	336.68
2750.62	330.672
2751.99	339.997
2753.36	336.656
2754.73	338.648
2756.1	344.64
2757.47	336.632
2758.84	355.957
2760.2	321.949
2761.57	335.274
2762.94	347.933
2764.3	330.592
2765.67	344.584
2767.03	342.576
2768.4	336.568
2769.76	337.227
2771.13	337.885
2772.49	335.877
2773.86	333.869
2775.22	346.528
2776.58	339.187
2777.94	329.179
2779.3	329.171
2780.67	337.163
2782.03	330.488
2783.39	327.147
2784.75	331.139
2786.11	335.131
2787.47	329.79
2788.83	320.448
2790.18	337.773
2791.54	336.432
2792.9	337.091
2794.26	325.75
2795.61	347.075
2796.97	316.4
2798.33	337.059
2799.68	325.718
2801.04	330.376
2802.39	333.035
2803.75	323.027
2805.1	348.352
2806.45	343.011
2807.81	335.67
2809.16	321.662
2810.51	334.987
2811.86	314.313
2813.22	324.971
2814.57	324.297
2815.92	331.622
2817.27	329.614
2818.62	332.273
2819.97	323.598
2821.32	332.923
2822.67	338.915
2824.01	324.907
2825.36	327.566
2826.71	330.225
2828.06	325.55
2829.4	333.542
2830.75	334.867
2832.1	328.859
2833.44	328.851
2834.79	318.843
2836.13	318.169
2837.48	325.494
2838.82	330.153
2840.16	311.478
2841.51	322.137
2842.85	330.129
2844.19	328.121
2845.53	321.446
2846.87	332.105
2848.22	322.097
2849.56	332.756
2850.9	306.748
2852.24	309.406
2853.58	319.398
2854.92	328.724
2856.25	324.716
2857.59	323.374
2858.93	323.366
2860.27	327.358
2861.6	314.017
2862.94	306.676
2864.28	323.335
2865.61	319.993
2866.95	333.319
2868.28	321.311
2869.62	336.636
2870.95	332.628
2872.29	315.953
2873.62	316.612
2874.95	321.937
2876.29	321.929
2877.62	310.588
2878.95	333.913
2880.28	318.572
2881.61	321.897
2882.94	326.556
2884.27	319.215
2885.6	314.54
2886.93	329.199
2888.26	312.524
2889.59	324.516
2890.92	297.175
2892.25	333.167
2893.57	319.159
2894.9	319.818
2896.23	320.476
2897.55	331.135
2898.88	323.127
2900.2	325.119
2901.53	307.111
2902.85	321.77
2904.18	309.762
2905.5	310.42
2906.83	327.079
2908.15	301.738
2909.47	322.396
2910.79	325.722
2912.12	305.714
2913.44	303.039
2914.76	324.364
2916.08	310.357
2917.4	333.682
2918.72	319.007
2920.04	314.999
2921.36	316.991
2922.68	316.983
2923.99	315.642
2925.31	310.967
2926.63	317.626
2927.95	319.618
2929.26	298.277
2930.58	310.935
2931.89	312.261
2933.21	318.253
2934.53	310.245
2935.84	318.903
2937.15	304.895
2938.47	315.554
2939.78	315.546
2941.09	319.538
2942.41	310.197
2943.72	319.522
2945.03	304.181
2946.34	312.84
2947.65	312.832
2948.96	326.157
2950.27	306.816
2951.58	310.808
2952.89	310.133
2954.2	314.125
2955.51	316.784
2956.82	316.109
2958.13	318.768
2959.44	325.426
2960.74	326.085
2962.05	306.744
2963.36	298.069
2964.66	312.728
2965.97	305.386
2967.27	314.712
2968.58	303.37
2969.88	310.696
2971.19	306.021
2972.49	304.68
2973.79	314.005
2975.09	319.331
2976.4	298.656
2977.7	297.315
2979	310.64
2980.3	319.965
2981.6	307.291
2982.9	305.283
2984.2	304.608
2985.5	303.933
2986.8	308.592
2988.1	309.251
2989.4	307.243
2990.7	306.568
2991.99	301.893
2993.29	305.886
2994.59	311.878
2995.88	313.87
2997.18	307.195
2998.48	307.854
2999.77	299.179
3001.07	312.504
3002.36	302.496
3003.66	303.822
3004.95	312.48
3006.24	298.472
3007.54	289.798
3008.83	310.456
3010.12	297.782
3011.41	311.774
3012.7	301.099
3013.99	313.091
3015.28	309.75
3016.57	304.408
3017.86	315.067
3019.15	298.393
3020.44	305.718
3021.73	303.71
3023.02	314.369
3024.31	308.361
3025.6	309.686
3026.88	298.345
3028.17	305.67
3029.46	308.995
3030.74	308.321
3032.03	314.313
3033.31	313.638
3034.6	312.963
3035.88	301.622
3037.16	305.614
3038.45	313.606
3039.73	290.265
3041.01	300.257
3042.3	294.915
3043.58	306.241
3044.86	302.9
3046.14	312.892
3047.42	311.55
3048.7	302.209
3049.98	293.534
3051.26	306.86
3052.54	302.185
3053.82	301.51
3055.1	304.169
3056.38	287.494
3057.65	310.153
3058.93	304.812
3060.21	302.804
3061.48	308.796
3062.76	302.121
3064.04	290.113
3065.31	301.438
3066.59	300.764
3067.86	300.089
3069.13	306.748
3070.41	300.073
3071.68	296.065
3072.95	304.057
3074.23	292.049
3075.5	304.041
3076.77	296.033
3078.04	301.359
3079.31	299.351
3080.58	299.327
3081.86	301.139
3083.12	295.825
3084.39	293.467
3085.66	299.199
3086.93	303.44
3088.2	298.093
3089.47	298.885
3090.74	296.977
3092	310.254
3093.27	298.41
3094.54	305.413
3095.8	296.587
3097.07	290.488
3098.33	296.274
3099.6	298.752
3100.86	279.201
3102.13	296.252
3103.39	293.093
3104.65	294.186
3105.92	287.43
3107.18	295.869
3108.44	285.993
3109.7	299.395
3110.96	290.205
3112.22	294.283
3113.49	294.556
3114.75	297.958
3116.01	294.846
3117.27	288.864
3118.52	292.29
3119.78	291.102
3121.04	296.425
3122.3	288.121
3123.56	292.809
3124.81	290.236
3126.07	287.559
3127.33	287.839
3128.58	291.884
3129.84	286.528
3131.09	292.317
3132.35	292.886
3133.6	295.69
3134.86	296.782
3136.11	288.48
3137.36	295.371
3138.62	288.828
3139.87	287.81
3141.12	290.167
3142.37	281.107
3143.62	282.895
3144.87	287.483
3146.13	295.998
3147.38	286.331
3148.63	291.828
3149.88	289.384
3151.12	288.528
3152.37	282.667
3153.62	278.165
3154.87	285.28
3156.12	281.456
3157.36	289.009
3158.61	288.015
3159.86	291.626
3161.1	292.973
3162.35	294.851
3163.59	296.767
3164.84	280.67
3166.08	295.101
3167.33	294.131
3168.57	284.994
3169.81	281.906
3171.06	287.526
3172.3	288.453
3173.54	276.677
3174.78	280.457
3176.02	273.839
3177.27	288.271
3178.51	286.982
3179.75	278.657
3180.99	286.612
3182.23	291.509
3183.46	287.193
3184.7	276.523
3185.94	281.86
3187.18	281.396
3188.42	275.275
3189.65	286.931
3190.89	284.495
3192.13	277.812
3193.36	276.732
3194.6	281.28
3195.83	286.439
3197.07	281.231
3198.3	284.432
3199.54	282.307
3200.77	287.048
3202.01	284.623
3203.24	281.693
3204.47	275.047
3205.7	277.284
3206.93	286.661
3208.17	282.746
3209.4	285.198
3210.56	287.024
3211.83	281.022
3213.1	283.688
3214.37	298.353
3215.64	273.686
3216.91	271.018
3218.17	280.35
3219.44	276.349
3220.71	274.348
3221.98	277.68
3223.25	286.345
3224.51	279.011
3225.78	268.343
3227.05	270.342
3228.31	278.341
3229.58	281.006
3230.84	263.005
3232.11	261.671
3233.37	282.336
3234.64	287.002
3235.9	275
3237.16	277.666
3238.43	274.998
3239.69	277.664
3240.95	280.996
3242.21	278.328
3243.48	280.327
3244.74	282.326
3246	272.991
3247.26	280.323
3248.52	278.322
3249.78	274.321
3251.04	273.653
3252.3	278.319
3253.56	270.318
3254.82	285.65
3256.08	276.982
3257.33	261.647
3258.59	276.313
3259.85	276.978
3261.11	277.644
3262.36	270.31
3263.62	274.975
3264.88	266.974
3266.13	276.973
3267.39	271.638
3268.64	262.97
3269.9	271.636
3271.15	267.635
3272.41	264.3
3273.66	281.632
3274.91	262.298
3276.17	272.964
3277.42	259.629
3278.67	266.294
3279.92	276.293
3281.18	268.959
3282.43	266.958
3283.68	282.29
3284.93	262.289
3286.18	276.954
3287.43	265.62
3288.68	268.952
3289.93	273.617
3291.18	279.616
3292.43	272.282
3293.68	276.281
3294.92	264.279
3296.17	280.278
3297.42	266.944
3298.67	274.276
3299.91	255.608
3301.16	268.94
3302.4	265.606
3303.65	260.271
3304.9	264.27
3306.14	272.936
3307.39	277.601
3308.63	278.933
3309.87	263.599
3311.12	269.598
3312.36	266.263
3313.6	269.595
3314.85	270.261
3316.09	262.926
3317.33	254.925
3318.57	266.258
3319.82	268.923
3321.06	270.922
3322.3	262.921
3323.54	260.253
3324.78	272.252
3326.02	276.251
3327.26	275.583
3328.5	266.248
3329.73	266.914
3330.97	272.246
3332.21	256.911
3333.45	255.577
3334.69	265.576
3335.92	260.241
3337.16	264.24
3338.4	269.572
3339.63	249.571
3340.87	260.237
3342.1	265.569
3343.34	261.568
3344.57	258.233
3345.81	270.232
3347.04	264.231
3348.28	251.563
3349.51	244.895
3350.74	261.561
3351.98	260.226
3353.21	257.559
3354.44	251.557
3355.67	266.89
3356.9	256.888
3358.13	260.887
3359.37	260.886
3360.6	272.885
3361.83	269.55
3363.06	252.216
3364.29	257.548
3365.51	270.88
3366.74	248.879
3367.97	269.545
3369.2	260.21
3370.43	260.876
3371.66	262.208
3372.88	270.873
3374.11	271.539
3375.34	260.204
3376.56	260.203
3377.79	261.535
3379.01	251.534
3380.24	266.2
3381.46	260.199
3382.69	254.197
3383.91	256.196
3385.14	256.195
3386.36	258.194
3387.58	258.193
3388.81	252.192
3390.03	258.857
3391.25	262.856
3392.47	243.522
3393.69	246.187
3394.91	255.519
3396.14	251.518
3397.36	257.517
3398.58	262.182
3399.8	253.515
3401.01	254.847
3402.23	264.846
3403.45	242.178
3404.67	256.843
3405.89	256.175
3407.11	271.508
3408.33	245.507
3409.54	259.505
3410.76	252.838
3411.98	254.836
3413.19	244.835
3414.41	246.167
3415.62	250.833
3416.84	259.498
3418.05	244.164
3419.27	264.829
3420.48	248.828
3421.7	238.16
3422.91	250.159
3424.12	250.825
3425.34	254.824
3426.55	256.156
3427.76	260.821
3428.97	246.154
3430.19	244.819
3431.4	246.818
3432.61	247.483
3433.82	249.482
3435.03	236.148
3436.24	253.48
3437.45	244.812
3438.66	246.144
3439.87	249.476
3441.08	254.142
3442.28	248.141
3443.49	258.14
3444.7	232.805
3445.91	250.137
3447.11	246.803
3448.32	251.468
3449.53	234.801
3450.73	246.799
3451.94	250.132
3453.14	253.464
3454.35	234.796
3455.55	238.128
3456.76	252.794
3457.96	252.126
3459.17	244.791
3460.37	236.124
3461.57	240.789
3462.78	249.455
3463.98	249.453
3465.18	237.452
3466.38	246.118
3467.58	244.783
3468.78	238.782
3469.99	244.114
3471.19	260.78
3472.39	247.445
3473.59	244.777
3474.79	253.443
3475.98	236.775
3477.18	235.441
3478.38	244.106
3479.58	238.772
3480.78	242.104
3481.98	246.103
3483.17	246.102
3484.37	238.767
3485.57	250.766
3486.76	248.098
3487.96	228.764
3489.15	236.762
3490.35	254.095
3491.54	246.093
3492.74	246.759
3493.93	244.091
3495.13	237.423
3496.32	242.089
3497.51	238.088
3498.71	236.087
3499.9	240.085
3501.09	242.751
3502.28	241.416
3503.48	244.082
3504.67	243.414
3505.86	226.08
3507.05	244.078
3508.24	227.411
3509.43	238.743
3510.62	252.742
3511.81	233.407
3513	238.073
3514.19	231.405
3515.37	234.737
3516.56	238.069
3517.75	239.401
3518.94	242.734
3520.12	248.732
3521.31	236.065
3522.5	232.063
3523.68	235.396
3524.87	240.728
3526.05	228.727
3527.24	231.392
3528.43	230.724
3529.61	240.057
3530.79	239.389
3531.98	238.721
3533.16	246.053
3534.34	235.385
3535.53	226.051
3536.71	232.05
3537.89	232.048
3539.07	231.381
3540.25	224.713
3541.44	225.378
3542.62	240.044
3543.8	233.376
3544.98	229.375
3546.16	228.707
3547.34	240.706
3548.52	227.371
3549.7	228.037
3550.88	230.036
3552.05	231.368
3553.23	233.367
3554.41	242.699
3555.59	243.364
3556.76	221.363
3557.94	234.695
3559.12	226.028
3560.29	231.36
3561.47	230.025
3562.64	227.358
3563.82	228.023
3564.99	236.022
3566.17	232.021
3567.34	246.02
3568.52	234.685
3569.69	232.684
3570.86	229.349
3572.04	228.015
3573.21	213.347
3574.38	222.013
3575.55	234.678
3576.72	232.677
3577.9	219.342
3579.07	237.341
3580.24	232.674
3581.41	218.006
3582.58	265.338
3583.75	230.003
3584.92	230.002
3586.08	238.001
3587.25	230.667
3588.42	230.665
3589.59	223.331
3590.76	229.33
3591.92	235.329
3593.09	237.994
3594.26	227.326
3595.42	227.992
3596.59	221.324
3597.76	219.99
3598.92	220.655
3600.09	233.987
3601.25	231.986
3602.42	224.652
3603.58	229.317
3604.74	221.983
3605.91	223.981
3607.07	231.314
3608.23	229.312
3609.4	213.311
3610.56	220.643
3611.72	228.642
3612.88	221.308
3614.04	224.64
3615.21	216.639
3616.37	212.638
3617.53	225.97
3618.69	211.969
3619.85	230.634
3621	230.633
3622.16	218.632
3623.32	221.964
3624.48	210.63
3625.64	229.962
3626.8	215.294
3627.95	217.959
3629.11	217.958
3630.27	237.957
3631.42	213.289
3632.58	227.288
3633.74	213.287
3634.89	216.619
3636.05	227.285
3637.2	222.617
3638.36	224.616
3639.51	226.615
3640.66	229.28
3641.82	223.946
3642.97	215.944
3644.12	224.61
3645.28	223.275
3646.43	231.941
3647.58	220.607
3648.73	227.939
3649.88	209.271
3651.04	228.603
3652.19	221.269
3653.34	216.601
3654.49	207.266
3655.64	225.265
3656.79	229.264
3657.93	231.263
3659.08	219.262
3660.23	225.26
3661.38	223.926
3662.53	209.925
3663.68	221.924
3664.82	223.256
3665.97	230.588
3667.12	215.254
3668.26	221.252
3669.41	215.251
3670.55	214.583
3671.7	213.916
3672.84	230.581
3673.99	199.913
3675.13	205.245
3676.28	217.911
3677.42	223.243
3678.56	207.242
3679.71	219.241
3680.85	231.24
3681.99	210.572
3683.13	229.237
3684.28	221.236
3685.42	211.902
3686.56	218.567
3687.7	213.899
3688.84	201.232
3689.98	223.897
3691.12	214.563
3692.26	213.228
3693.4	215.894
3694.54	221.226
3695.68	211.891
3696.81	213.223
3697.95	211.889
3699.09	211.221
3700.23	211.22
3701.36	217.886
3702.5	218.551
3703.64	217.217
3704.77	202.549
3705.91	207.214
3707.04	215.88
3708.18	212.545
3709.31	209.877
3710.45	209.21
3711.58	208.542
3712.72	202.541
3713.85	209.206
3714.98	214.538
3716.12	206.537
3717.25	220.536
3718.38	223.202
3719.51	227.867
3720.64	203.866
3721.78	215.865
3722.91	206.53
3724.04	204.529
3725.17	203.195
3726.3	195.86
3727.43	197.192
3728.56	200.524
3729.69	207.857
3730.82	211.189
3731.94	200.521
3733.07	207.853
3734.2	211.185
3735.33	209.851
3736.45	203.85
3737.58	199.849
3738.71	203.847
3739.83	204.513
3740.96	208.512
3742.09	212.511
3743.21	201.176
3744.34	203.175
3745.46	209.174
3746.59	199.839
3747.71	209.172
3748.83	201.17
3749.96	209.169
3751.08	198.501
3752.2	202.5
3753.32	201.166
3754.45	205.831
3755.57	204.497
3756.69	199.829
3757.81	199.828
3758.93	198.493
3760.05	205.826
3761.17	201.158
3762.29	185.157
3763.41	208.489
3764.53	193.821
3765.65	191.153
3766.77	204.485
3767.89	203.151
3769.01	195.816
3770.12	197.815
3771.24	211.147
3772.36	194.479
3773.47	198.478
3774.59	205.81
3775.71	197.809
3776.82	184.475
3777.94	194.474
3779.05	196.473
3780.17	205.805
3781.28	201.137
3782.4	183.802
3783.51	205.135
3784.63	214.467
3785.74	196.466
3786.85	195.131
3787.96	201.797
3789.08	188.462
3790.19	193.794
3791.3	200.46
3792.41	187.125
3793.52	199.124
3794.63	205.79
3795.74	196.455
3796.86	199.787
3797.97	202.453
3799.07	189.118
3800.18	198.451
3801.29	193.783
3802.4	200.448
3803.51	197.114
3804.62	194.446
3805.73	200.445
3806.83	188.444
3807.94	195.776
3809.05	192.441
3810.15	200.44
3811.26	188.439
3812.37	195.105
3813.47	189.77
3814.58	186.436
3815.68	193.768
3816.79	195.1
3817.89	208.432
3818.99	190.431
3820.1	186.43
3821.2	185.762
3822.3	197.094
3823.41	203.093
3824.51	191.092
3825.61	189.757
3826.71	191.756
3827.81	186.422
3828.92	195.087
3830.02	193.753
3831.12	190.418
3832.22	194.417
3833.32	197.083
3834.42	189.748
3835.52	195.08
3836.61	190.412
3837.71	176.411
3838.81	183.743
3839.91	191.742
3841.01	181.741
3842.1	197.073
3843.2	199.739
3844.3	198.404
3845.4	194.403
3846.49	185.735
3847.59	185.734
3848.68	192.4
3849.78	176.399
3850.87	185.731
3851.97	181.063
3853.06	187.728
3854.16	187.727
3855.25	200.393
3856.34	186.392
3857.44	189.057
3858.53	186.389
3859.62	184.388
3860.71	191.054
3861.81	183.719
3862.9	177.051
3863.99	183.05
3865.08	186.382
3866.17	179.715
3867.26	178.38
3868.35	185.046
3869.44	181.711
3870.53	183.043
3871.62	189.709
3872.71	183.041
3873.79	186.373
3874.88	179.039
3875.97	175.704
3877.06	167.703
3878.15	188.369
3879.23	189.034
3880.32	181.033
3881.41	189.032
3882.49	182.364
3883.58	181.029
3884.66	183.695
3885.75	181.027
3886.83	186.359
3887.92	185.025
3889	193.024
3890.08	179.689
3891.17	177.021
3892.25	185.687
3893.33	187.019
3894.42	183.018
3895.5	183.017
3896.58	185.016
3897.66	175.014
3898.74	183.013
3899.82	175.012
3900.91	185.011
3901.99	179.01
3903.07	177.009
3904.15	181.674
3905.23	190.34
3906.3	183.005
3907.38	188.337
3908.46	182.336
3909.54	180.335
3910.62	180.334
3911.7	179.666
3912.77	174.332
3913.85	180.997
3914.93	182.996
3916	178.995
3917.08	182.327
3918.16	170.326
3919.23	172.991
3920.31	177.657
3921.38	179.656
3922.46	186.321
3923.53	174.987
3924.6	173.652
3925.68	178.984
3926.75	182.317
3927.82	165.649
3928.9	172.981
3929.97	174.313
3931.04	172.979
3932.11	178.311
3933.18	180.31
3934.25	180.975
3935.33	164.974
3936.4	182.973
3937.47	174.305
3938.54	166.971
3939.61	177.636
3940.68	172.968
3941.74	178.3
3942.81	180.299
3943.88	171.631
3944.95	169.63
3946.02	172.962
3947.08	169.628
3948.15	180.96
3949.22	174.292
3950.29	176.958
3951.35	178.957
3952.42	170.956
3953.48	172.954
3954.55	174.287
3955.61	179.619
3956.68	175.618
3957.74	177.616
3958.81	181.615
3959.87	188.281
3960.93	164.28
3962	168.945
3963.06	175.611
3964.12	164.943
3965.19	172.275
3966.25	176.941
3967.31	176.939
3968.37	176.272
3969.43	169.604
3970.49	170.269
3971.55	163.601
3972.61	166.267
3973.67	170.266
3974.73	160.931
3975.79	172.263
3976.85	167.596
3977.91	174.928
3978.97	182.927
3980.03	168.259
3981.08	179.591
3982.14	162.923
3983.2	176.922
3984.25	166.254
3985.31	174.92
3986.37	172.919
3987.42	163.584
3988.48	166.916
3989.53	166.248
3990.59	174.914
3991.64	162.913
3992.7	158.912
3993.75	160.244
3994.81	160.243
3995.86	168.241
3996.91	164.24
3997.97	174.239
3999.02	164.238
