#Acq. time (s)=	5
#Accumulations=	10
#Range (cm-¹)=	60...4000
#Windows=	2
#Auto scanning=	Off
#Autofocus=	Off
#AutoExposure=	Off
#Spike filter=	Multiple accum.
#Delay time (s)=	0
#Binning=	1
#Readout mode=	Signal
#DeNoise=	Off
#ICS correction=	Off
#Dark correction=	Off
#Inst. Process=	Off
#Detector Gain=	Best Dynamic Range
#Detector ADC=	45 kHz       
#Detector temperature (°C)=	-60.1
#Instrument=	XploRA Plus
#Detector=	Syncerity OE
#Objective=	x50_VIS_LWD
#Grating=	1200 (750nm)
#Filter=	50%
#Laser=	532nm_Edge
#Slit (µm)=	100 
#Hole (µm)=	300 
#Temperature=	0
#StageXY=	75x50mm Scan+
#StageZ=	Z motor
#X (µm)=	0
#Y (µm)=	0
#Z (µm)=	-40.2
#Full time(mm:ss)=	2:01
#Project=	
#Sample=	
#Site=	
#Title=	cubic_zirconia_17_06_42_2026_04_01_10_5 s_532nm_Edge_1200 (750nm)_x50_VIS_LWD_100 µm_300 µm_50%
#Remark=	
#Date=	01.04.2026 17:07
#Acquired=	01.04.2026 17:07:01
#AxisType[0]=Intens
#AxisUnit[0]=Cnt
#AxisType[1]=Spectr
#AxisUnit[1]=1/cm
62.8738	2235.89
66.1253	2325.44
69.3736	2335.67
72.6208	2268.33
75.869	2280.11
79.1139	2473.67
82.3577	2895.89
85.6003	3706.78
88.844	5041.22
92.0844	6433.44
95.3237	6622.11
98.5619	5749.89
101.799	4628.78
105.035	3853.22
108.27	3614.78
111.503	3684.33
114.736	3767.89
117.967	4230.11
121.196	5103.89
124.425	5488.33
127.653	5608.78
130.88	5066.78
134.104	3995.44
137.328	3082.33
140.552	2335.22
143.773	2009.67
146.994	1937.44
150.212	2081
153.431	2501
156.647	3053.44
159.862	3149.67
163.078	2824.78
166.291	2391.22
169.502	1991.89
172.713	1713.44
175.924	1597.22
179.132	1513.67
182.339	1491.44
185.545	1485
188.75	1495.22
191.954	1510.78
195.157	1516.33
198.358	1549.89
201.559	1666.78
204.758	1930.33
207.954	2144.11
211.152	2115.89
214.348	1811.67
217.543	1546.11
220.734	1332.33
223.927	1249
227.117	1266.33
230.307	1327.89
233.495	1663.67
236.683	2534.33
239.868	3383
243.055	3458.78
246.238	3251.22
249.42	3106.78
252.603	3778.56
255.782	6414.56
258.961	9212.56
262.139	8990.78
265.315	6965.89
268.49	4574.11
271.665	2681
274.838	1929.89
278.01	1721.67
281.181	1693
284.351	1695.44
287.52	1859.44
290.688	2275.22
293.852	2878.56
297.018	3220.11
300.183	3301.22
303.344	3299.44
306.506	3173.67
309.665	2756.56
312.826	2179
315.983	1655.89
319.141	1316.33
322.296	1338.56
325.45	1653
328.604	1847.67
331.756	1762.78
334.907	1529
338.056	1255.67
341.205	1084.56
344.352	1015.44
347.498	1075
350.643	1170.78
353.788	1296.33
356.931	1424.78
360.073	1573.44
363.214	1863
366.353	2281.89
369.49	2357.44
372.628	2171.67
375.765	1804.78
378.898	1440.33
382.033	1197
385.164	1070.56
388.296	992.778
391.426	910.111
394.556	853.667
397.683	825.667
400.809	796.333
403.936	760.778
407.06	755
410.183	746.111
413.305	745.667
416.426	766.111
419.545	794.333
422.664	906.111
425.781	1107.89
428.898	1256.33
432.013	1240.56
435.128	1127.22
438.239	1009
441.351	923
444.463	911.889
447.571	931
450.68	1026.11
453.786	1147.44
456.893	1231.67
459.997	1249.67
463.102	1325.89
466.204	1496.33
469.305	1665
472.406	1784.33
475.505	1839.67
478.603	1854.78
481.699	2003.89
484.795	2335.67
487.889	2781.22
490.983	2938.78
494.075	2621.89
497.166	2042.78
500.257	1524.11
503.346	1145.22
506.434	925.667
509.519	845
512.606	794.111
515.691	783.444
518.773	781
521.856	811.667
524.936	859.667
528.017	929.222
531.094	1027.22
534.171	1190.56
537.247	1429.44
540.324	1830.11
543.398	2485.67
546.47	3718.56
549.542	5972.78
552.613	8901.44
555.682	10694.3
558.751	10671.7
561.818	9650.33
564.885	8246.11
567.95	7434.33
571.013	7669.44
574.076	8758.33
577.138	9826.33
580.198	9550.56
583.258	7964.78
586.315	5915
589.374	4097.22
592.429	2937.22
595.485	2223.89
598.538	1819.67
601.59	1571.44
604.643	1382.33
607.693	1281
610.743	1237.22
613.791	1223.22
616.838	1268.11
619.884	1372.56
622.929	1525.44
625.973	1577.67
629.013	1547.89
632.055	1386.78
635.096	1204.78
638.136	1089
641.173	1018.33
644.211	968.111
647.246	969.889
650.282	996.333
653.314	1077
656.348	1215
659.379	1484.33
662.409	2000.78
665.437	2983.67
668.465	4352.56
671.494	5284.33
674.52	4982.33
677.544	3969.44
680.568	2809.89
683.589	1918.78
686.61	1430.11
689.631	1201
692.651	1072.11
695.669	1028.11
698.685	1002.56
701.702	1069.89
704.715	1180.11
707.73	1365
710.742	1517.22
713.754	1545
716.764	1483
719.772	1406.56
722.78	1321
725.789	1254.33
728.794	1196.33
731.799	1201
734.802	1318.56
737.805	1492.56
740.807	1562.78
743.807	1508.11
746.805	1406.56
749.804	1299.67
752.801	1232.11
755.796	1114.78
758.792	993.889
761.786	843.667
764.778	743
767.769	687.222
770.76	638.556
773.749	607.444
776.737	595.444
779.725	597.222
782.711	597
785.696	595.889
788.68	580.556
791.662	576.111
794.644	576.778
797.625	559.667
800.605	558.778
803.582	556.111
806.559	551
809.536	534.778
812.51	531
815.485	512.333
818.457	491.444
821.43	487.889
824.4	477.889
827.369	467.222
830.339	473.889
833.306	466.778
836.272	472.778
839.237	468.556
842.201	476.778
845.164	469
848.126	473.667
851.087	483.444
854.047	496.111
857.007	502.778
859.963	507.889
862.92	512.333
865.876	539.444
868.83	565.222
871.784	596.555
874.735	641
877.686	690.111
880.637	739
883.586	759.667
886.533	839.444
889.48	965.667
892.425	1238.78
895.37	1680.56
898.313	2295
901.256	2604.56
904.198	2445.44
907.138	2022.56
910.078	1578.56
913.015	1297.67
915.953	1208.11
918.888	1191.22
921.824	1137
924.757	1057
927.691	956.333
930.622	877.444
933.552	848.778
936.481	839.222
939.411	864.333
942.338	941.889
945.264	1040.56
948.19	1203.44
951.114	1389.44
954.035	1438.33
956.958	1542.33
959.879	1831.67
962.8	2439.22
965.717	3522.56
968.636	5455.22
971.552	7458.78
974.468	7800.78
977.382	6589.44
980.295	4793.67
983.209	3096.78
986.12	2101.22
989.03	1644.11
991.939	1497
994.847	1491.89
997.754	1634.33
1000.66	1927
1003.57	2624.33
1006.47	3934.11
1009.37	5588.56
1012.27	6386.33
1015.17	5954.11
1018.07	4782.78
1020.97	3446.11
1023.87	2427.89
1026.77	1791.22
1029.66	1396.11
1032.56	1158.56
1035.45	1021.44
1038.34	943.667
1041.23	872.556
1044.12	843.667
1047.01	815
1049.9	788.556
1052.78	790.333
1055.67	766.778
1058.56	788.556
1061.44	808.111
1064.32	834.778
1067.2	882.587
1070.08	915.507
1072.96	912.872
1075.84	841.348
1078.72	780.269
1081.6	721.856
1084.47	687.221
1087.35	679.919
1090.22	669.061
1093.09	685.759
1095.96	691.346
1098.83	730.711
1101.7	783.409
1104.57	866.108
1107.43	955.695
1110.3	1024.39
1113.16	996.647
1116.03	942.011
1118.89	834.932
1121.75	771.408
1124.61	727.661
1127.47	734.582
1130.33	739.724
1133.19	746.2
1136.04	778.898
1138.9	786.708
1141.75	819.628
1144.61	838.549
1147.46	873.247
1150.31	895.056
1153.16	943.088
1156.01	979.119
1158.86	1026.48
1161.7	1071.63
1164.55	1134.99
1167.39	1203.91
1170.24	1359.5
1173.08	1634.42
1175.92	1985.12
1178.76	2531.37
1181.6	3001.18
1184.44	3194.1
1187.28	2951.02
1190.12	2424.61
1192.95	1893.53
1195.79	1433.34
1198.62	1136.92
1201.45	955.178
1204.28	842.321
1207.11	762.353
1209.94	703.273
1212.77	677.305
1215.6	651.558
1218.42	627.145
1221.25	630.51
1224.07	615.208
1226.9	608.129
1229.72	597.716
1232.54	605.303
1235.36	592.89
1238.18	588.032
1241	602.953
1243.81	600.984
1246.63	590.794
1249.44	610.825
1252.26	613.523
1255.07	618.444
1257.88	636.253
1260.69	650.284
1263.5	698.094
1266.31	768.125
1269.12	849.712
1271.92	891.299
1274.73	834.442
1277.53	775.807
1280.34	720.949
1283.14	675.647
1285.94	681.012
1288.74	669.488
1291.54	663.297
1294.34	669.107
1297.14	673.583
1299.93	676.725
1302.73	700.535
1305.52	718.566
1308.31	718.82
1311.11	721.074
1313.9	735.772
1316.69	724.248
1319.48	721.835
1322.26	721.866
1325.05	737.675
1327.84	743.707
1330.62	718.183
1333.41	727.992
1336.19	735.801
1338.97	728.277
1341.75	737.42
1344.53	735.451
1347.31	734.15
1350.09	729.514
1352.87	739.102
1355.64	744.244
1358.42	754.498
1361.19	753.863
1363.96	770.561
1366.74	768.148
1369.51	793.291
1372.28	824.878
1375.04	874.909
1377.81	1084.05
1380.58	1828.97
1383.34	2196.56
1386.11	1907.04
1388.87	1589.51
1391.63	1166.88
1394.4	948.463
1397.16	914.717
1399.92	914.526
1402.67	906.335
1405.43	888.589
1408.19	888.398
1410.95	868.652
1413.7	866.017
1416.45	870.27
1419.21	869.635
1421.96	878.111
1424.71	894.143
1427.46	896.619
1430.21	886.65
1432.95	899.126
1435.7	894.713
1438.45	900.3
1441.19	904.554
1443.93	911.696
1446.68	923.061
1449.42	921.537
1452.16	923.569
1454.9	927.6
1457.64	925.409
1460.37	928.774
1463.11	944.806
1465.85	945.282
1468.58	946.202
1471.31	977.789
1474.05	957.376
1476.78	964.519
1479.51	986.995
1482.24	972.582
1484.97	996.613
1487.69	987.089
1490.42	1001.12
1493.15	1009.15
1495.87	1014.52
1498.59	1013.44
1501.32	1037.91
1504.04	1042.83
1506.76	1048.42
1509.48	1053.12
1512.2	1071.59
1514.91	1075.63
1517.63	1069.21
1520.35	1097.47
1523.06	1099.94
1525.77	1103.31
1528.49	1117.12
1531.2	1126.7
1533.91	1132.07
1536.62	1146.77
1539.33	1147.47
1542.04	1163.05
1544.74	1163.53
1547.45	1164
1550.15	1182.92
1552.85	1196.96
1555.56	1186.1
1558.26	1199.02
1560.96	1211.27
1563.66	1214.19
1566.36	1205.78
1569.06	1223.59
1571.75	1230.51
1574.45	1229.87
1577.14	1264.35
1579.84	1252.38
1582.53	1262.64
1585.22	1258.89
1587.91	1278.48
1590.6	1290.06
1593.29	1298.32
1595.98	1310.79
1598.67	1329.71
1601.35	1332.63
1604.04	1331.11
1606.72	1352.7
1609.4	1361.84
1612.09	1363.43
1614.77	1364.35
1617.45	1370.16
1620.13	1407.74
1622.8	1387.78
1625.48	1430.25
1628.16	1428.5
1630.83	1447.43
1633.51	1465.46
1636.18	1467.27
1638.85	1477.3
1641.52	1486.44
1644.19	1497.14
1646.86	1503.84
1649.53	1511.65
1652.2	1525.23
1654.86	1529.93
1657.53	1558.41
1660.2	1543.33
1662.86	1556.47
1665.52	1567.39
1668.18	1574.76
1670.84	1580.79
1673.5	1610.15
1676.16	1618.41
1678.82	1617.33
1681.47	1607.36
1684.13	1636.06
1686.79	1646.09
1689.44	1649.01
1692.09	1671.04
1694.74	1668.18
1697.39	1687.55
1700.04	1681.8
1702.69	1706.72
1705.34	1716.75
1707.99	1719.01
1710.64	1745.48
1713.28	1757.96
1715.92	1764.88
1718.57	1785.35
1721.21	1792.27
1723.85	1800.75
1726.49	1814.34
1729.13	1832.81
1731.77	1829.07
1734.41	1853.76
1737.04	1878.24
1739.68	1887.61
1742.31	1893.86
1744.94	1909
1747.58	1911.7
1750.21	1933.73
1752.84	1955.54
1755.47	1971.35
1758.1	1986.49
1760.73	2006.75
1763.35	2014.11
1765.98	2047.03
1768.6	2044.84
1771.23	2061.32
1773.85	2066.01
1776.47	2080.49
1779.09	2087.63
1781.71	2104.78
1784.33	2091.92
1786.95	2146.39
1789.57	2152.87
1792.18	2144.68
1794.8	2152.04
1797.41	2200.52
1800.03	2189.44
1802.64	2201.92
1805.25	2213.28
1807.86	2234.2
1810.47	2226.01
1813.08	2259.82
1815.69	2283.41
1818.29	2306.55
1820.9	2302.8
1823.5	2307.5
1826.11	2313.76
1828.71	2351.12
1831.31	2359.37
1833.91	2371.41
1836.51	2394.1
1839.11	2389.69
1841.71	2411.28
1844.31	2440.2
1846.9	2450.9
1849.5	2476.26
1852.09	2507.4
1854.69	2540.99
1857.28	2538.58
1859.87	2564.83
1862.46	2578.2
1865.05	2569.56
1867.64	2597.59
1870.23	2610.96
1872.81	2620.99
1875.4	2660.8
1877.98	2666.61
1880.57	2679.08
1883.15	2695.56
1885.73	2736.48
1888.31	2726.51
1890.89	2760.32
1893.47	2785.24
1896.05	2779.94
1898.63	2826.19
1901.2	2808.22
1903.78	2820.48
1906.35	2843.62
1908.93	2861.65
1911.5	2870.8
1914.07	2896.16
1916.64	2907.75
1919.21	2942.67
1921.78	2974.48
1924.35	2977.62
1926.92	3001.43
1929.48	3025.02
1932.05	3032.6
1934.61	3053.3
1937.17	3071.78
1939.74	3072.7
1942.3	3115.4
1944.86	3155.87
1947.42	3151.68
1949.98	3200.6
1952.53	3216.41
1955.09	3223.11
1957.65	3216.47
1960.2	3257.84
1962.76	3295.65
1965.31	3327.23
1967.86	3311.49
1970.41	3338.85
1972.96	3376.66
1975.51	3371.36
1978.06	3417.17
1980.61	3421.87
1983.15	3462.57
1985.7	3477.93
1988.24	3517.96
1990.79	3532.44
1993.33	3541.58
1995.87	3574.95
1998.41	3592.98
2000.95	3599.68
2003.49	3609.71
2006.03	3642.41
2008.57	3682.44
2011.1	3688.02
2013.64	3715.61
2016.17	3727.86
2018.71	3736.78
2021.24	3749.71
2023.77	3765.51
2026.3	3805.55
2028.83	3805.36
2031.36	3826.05
2033.89	3852.09
2036.41	3861.23
2038.94	3874.37
2041.47	3911.96
2043.99	3951.99
2046.51	3934.24
2049.04	3980.5
2051.56	4001.64
2054.08	4024.56
2056.6	4038.59
2059.12	4075.96
2061.63	4081.99
2064.15	4135.13
2066.67	4144.05
2069.18	4152.3
2071.7	4187.45
2074.21	4241.48
2076.72	4270.18
2079.23	4270.65
2081.74	4310.46
2084.25	4338.49
2086.76	4370.52
2089.27	4409.67
2091.78	4418.36
2094.28	4452.4
2096.79	4487.32
2099.29	4508.46
2101.8	4557.16
2104.3	4562.74
2106.8	4590.33
2109.3	4624.81
2111.8	4647.06
2114.3	4667.98
2116.79	4725.57
2119.29	4733.6
2121.79	4760.74
2124.28	4783
2126.78	4788.14
2129.27	4823.95
2131.76	4821.98
2134.25	4860.68
2136.74	4884.04
2139.23	4883.41
2141.72	4928.33
2144.21	4922.8
2146.7	4958.39
2149.18	4970.42
2151.67	4955.12
2154.15	4995.82
2156.63	5005.63
2159.12	5028.1
2161.6	5039.25
2164.08	5060.17
2166.56	5069.31
2169.04	5101.34
2171.51	5137.15
2173.99	5099.63
2176.47	5206.1
2178.94	5191.47
2181.42	5210.17
2183.89	5231.53
2186.36	5268.23
2188.83	5312.7
2191.3	5339.62
2193.77	5370.99
2196.24	5369.69
2198.71	5453.05
2201.18	5487.97
2203.64	5504.23
2206.11	5531.59
2208.57	5559.62
2211.04	5599.65
2213.5	5668.58
2215.96	5686.38
2218.42	5746.42
2220.88	5769.34
2223.34	5819.59
2225.8	5867.62
2228.25	5882.76
2230.71	5883.46
2233.17	5958.83
2235.62	5992.64
2238.07	6020
2240.52	6086.48
2242.98	6124.95
2245.43	6152.76
2247.88	6171.46
2250.33	6232.83
2252.77	6273.3
2255.22	6295.78
2257.67	6305.81
2260.11	6393.84
2262.56	6403.2
2265	6441.24
2267.44	6439.05
2269.89	6454.41
2272.33	6515.33
2274.77	6541.58
2277.21	6560.95
2279.65	6576.76
2282.08	6575.01
2284.52	6638.16
2286.96	6651.96
2289.39	6654.44
2291.82	6699.8
2294.26	6716.06
2296.69	6735.65
2299.12	6723.9
2301.55	6768.6
2303.98	6795.96
2306.41	6816.22
2308.83	6884.47
2311.26	6870.72
2313.69	6934.31
2316.11	6944.34
2318.54	6981.93
2320.96	7016.18
2323.38	7032.66
2325.8	7074.25
2328.22	7096.28
2330.65	7170.53
2333.06	7187.23
2335.48	7192.82
2337.9	7259.52
2340.31	7246.88
2342.73	7335.13
2345.14	7355.83
2347.56	7445.42
2349.97	7424.56
2352.38	7471.93
2354.79	7499.51
2357.2	7587.32
2359.61	7621.13
2362.02	7609.83
2364.43	7678.97
2366.83	7714.56
2369.24	7753.03
2371.64	7777.29
2374.05	7857.54
2376.45	7891.35
2378.85	7910.72
2381.26	7977.64
2383.65	8028.11
2386.06	8033.03
2388.45	8085.06
2390.85	8091.1
2393.25	8204.91
2395.64	8183.38
2398.04	8232.08
2400.43	8293.22
2402.83	8273.7
2405.22	8372.17
2407.61	8385.32
2410	8384.46
2412.39	8424.93
2414.78	8520.3
2417.17	8518.55
2419.56	8565.47
2421.94	8615.51
2424.33	8657.98
2426.71	8652.24
2429.1	8692.49
2431.48	8745.19
2433.86	8751.44
2436.24	8799.7
2438.62	8785.5
2441	8850.42
2443.38	8881.34
2445.76	8869.15
2448.14	8949.41
2450.51	9051.88
2452.89	9007.69
2455.26	9059.06
2457.63	9087.31
2460.01	9097.79
2462.38	9157.6
2464.75	9143.18
2467.12	9183.66
2469.49	9215.69
2471.86	9282.83
2474.22	9315.75
2476.59	9323.12
2478.96	9361.37
2481.32	9439.41
2483.69	9482.99
2486.05	9500.58
2488.41	9559.5
2490.77	9609.09
2493.13	9620.89
2495.49	9646.04
2497.85	9670.96
2500.21	9674.77
2502.56	9745.69
2504.92	9789.72
2507.28	9830.64
2509.63	9838
2511.99	9855.81
2514.34	9958.96
2516.69	9968.32
2519.04	10015.2
2521.39	10039.3
2523.74	10066.6
2526.09	10155.3
2528.44	10134.7
2530.78	10226.3
2533.13	10203.9
2535.47	10273.5
2537.82	10325
2540.16	10318.9
2542.5	10361.6
2544.85	10406.5
2547.19	10453.2
2549.53	10536.1
2551.87	10520.6
2554.2	10556.4
2556.54	10606.4
2558.88	10706
2561.21	10750.7
2563.55	10738.6
2565.88	10807.3
2568.21	10830.8
2570.55	10842.5
2572.88	10931.8
2575.21	10933.6
2577.54	10964.4
2579.87	10969.1
2582.19	11042.1
2584.52	11125.7
2586.85	11168.4
2589.17	11136.5
2591.5	11215.4
2593.82	11242.9
2596.15	11300.5
2598.47	11357.2
2600.79	11412.8
2603.11	11409.3
2605.43	11463.6
2607.75	11542.2
2610.07	11581.4
2612.38	11615.3
2614.7	11667.8
2617.01	11683.3
2619.33	11684.6
2621.64	11751.6
2623.96	11818.4
2626.27	11858.7
2628.58	11913.1
2630.89	11875.8
2633.2	11987.3
2635.51	12019.3
2637.81	12075.7
2640.12	12092.8
2642.43	12110
2644.73	12153.2
2647.04	12182.1
2649.34	12218.3
2651.64	12266.8
2653.94	12308.6
2656.25	12320
2658.55	12359
2660.85	12415.2
2663.14	12431.9
2665.44	12472.5
2667.74	12528.6
2670.03	12526.7
2672.33	12579.9
2674.62	12656.2
2676.92	12690.5
2679.21	12728.3
2681.5	12737.5
2683.79	12786.3
2686.08	12860.2
2688.37	12923.6
2690.66	12914.8
2692.95	12937.7
2695.24	12999.8
2697.52	13051.2
2699.81	13076
2702.09	13122
2704.37	13172.5
2706.66	13229.3
2708.94	13255.2
2711.22	13292.9
2713.5	13344.3
2715.78	13415
2718.06	13479.5
2720.33	13517.5
2722.61	13552
2724.89	13602.3
2727.16	13641
2729.44	13683.7
2731.71	13734
2733.98	13750.1
2736.26	13806
2738.53	13860
2740.8	13950.8
2743.07	13990.6
2745.33	14050.3
2747.6	14102.6
2749.87	14129.7
2752.14	14161.5
2754.4	14242.1
2756.66	14257.7
2758.93	14323.9
2761.19	14364
2763.45	14453.7
2765.72	14500.2
2767.98	14500.4
2770.23	14584.5
2772.49	14619.1
2774.75	14688
2777.01	14670.8
2779.26	14744.6
2781.52	14845
2783.77	14878.9
2786.03	14885.9
2788.28	14958.9
2790.53	15033.1
2792.78	15046
2795.03	15048.7
2797.28	15078.6
2797.45	15082.4
2799.74	15175.5
2802.03	15256.8
2804.32	15218
2806.6	15296.6
2808.89	15318.8
2811.17	15374.4
2813.46	15432.8
2815.74	15436.2
2818.02	15477.5
2820.3	15541
2822.58	15566.4
2824.86	15542.1
2827.14	15657.2
2829.42	15707.9
2831.7	15692.4
2833.98	15740.8
2836.25	15758.8
2838.53	15886.1
2840.8	15864.1
2843.08	15938.3
2845.35	15953.9
2847.62	15973.4
2849.9	16030.1
2852.17	16087.7
2854.44	16079.2
2856.71	16154.1
2858.98	16266.8
2861.24	16281.4
2863.51	16321.2
2865.78	16348.1
2868.04	16427.4
2870.31	16413.6
2872.57	16521.6
2874.84	16512.3
2877.1	16648.1
2879.36	16648.3
2881.62	16693.2
2883.89	16739.8
2886.15	16796
2888.41	16882
2890.66	16921.8
2892.92	16964.3
2895.18	17034.7
2897.44	17043.4
2899.69	17157.4
2901.95	17161.1
2904.2	17275.4
2906.46	17360.2
2908.71	17394
2910.96	17439.8
2913.21	17492.4
2915.46	17575.3
2917.71	17608.4
2919.96	17698.9
2922.21	17728
2924.46	17713.1
2926.71	17816.6
2928.95	17846.9
2931.2	17913.1
2933.44	18022.2
2935.68	18082.9
2937.93	18020.6
2940.17	18058.8
2942.41	18195.7
2944.65	18194.2
2946.89	18337.1
2949.13	18329.7
2951.37	18355.3
2953.61	18424.8
2955.85	18536.8
2958.09	18468.4
2960.32	18555
2962.56	18568.4
2964.79	18700.6
2967.03	18652.4
2969.26	18752.4
2971.49	18802.8
2973.72	18849
2975.95	18946.6
2978.18	18971.5
2980.41	19030.3
2982.64	19096.1
2984.87	19104.1
2987.1	19139.2
2989.33	19223.9
2991.55	19193.2
2993.78	19255.9
2996	19298.5
2998.22	19360.3
3000.45	19389
3002.67	19449.9
3004.89	19466.3
3007.11	19457.9
3009.33	19535
3011.55	19535.8
3013.77	19572.5
3015.99	19616.1
3018.21	19622.1
3020.42	19559.2
3022.64	19634.9
3024.85	19664.5
3027.07	19651.2
3029.28	19818
3031.49	19859.4
3033.71	19880.7
3035.92	19941.8
3038.13	19989.6
3040.34	20089.6
3042.55	20161.8
3044.76	20184.5
3046.97	20252.9
3049.17	20222.4
3051.38	20266.2
3053.58	20355.1
3055.79	20387.5
3058	20423.8
3060.2	20422.7
3062.4	20560.4
3064.6	20568.9
3066.8	20559.8
3069.01	20556.4
3071.21	20671.3
3073.41	20695.7
3075.6	20747.7
3077.8	20760.6
3080	20876.4
3082.2	20829.7
3084.39	20809.3
3086.59	20964.8
3088.78	20953.9
3090.97	21039.5
3093.17	21070.6
3095.36	21236.6
3097.55	21177
3099.74	21164.4
3101.93	21239.7
3104.12	21268.8
3106.31	21350.8
3108.5	21358.6
3110.68	21383.9
3112.87	21406.6
3115.06	21502.6
3117.24	21469
3119.43	21587.9
3121.61	21585.2
3123.79	21631.7
3125.98	21652.8
3128.16	21642.3
3130.34	21807.4
3132.52	21715.9
3134.7	21800.8
3136.88	21900.5
3139.05	21913.6
3141.23	21872.5
3143.41	22021.9
3145.58	22019.2
3147.76	22010.3
3149.93	22075.8
3152.11	22132.3
3154.28	22172.5
3156.45	22181.2
3158.63	22202.7
3160.8	22249.6
3162.97	22329.4
3165.14	22452
3167.3	22433.6
3169.47	22385.4
3171.64	22455.6
3173.81	22504
3175.97	22501.8
3178.14	22495.8
3180.3	22597.8
3182.47	22609.3
3184.63	22655.6
3186.79	22652.2
3188.95	22764.2
3191.11	22759.6
3193.28	22714.9
3195.43	22776.4
3197.59	22781.1
3199.75	22912.4
3201.91	22921.3
3204.07	22922.9
3206.22	22983.5
3208.38	23009.1
3210.53	23018.8
3212.69	23154.6
3214.84	23104.2
3216.99	23192.6
3219.14	23250.6
3221.3	23277.3
3223.45	23241.9
3225.6	23363.3
3227.75	23379.5
3229.89	23399.5
3232.04	23469.7
3234.19	23517.7
3236.34	23503.7
3238.48	23498.1
3240.62	23584.4
3242.77	23627.2
3244.91	23602.1
3247.06	23667.7
3249.2	23704.6
3251.34	23788.1
3253.48	23818.3
3255.62	23892.3
3257.76	23940.6
3259.9	23900.8
3262.04	24090.8
3264.17	24058.3
3266.31	24118.3
3268.45	24200.3
3270.58	24193.9
3272.72	24309.2
3274.85	24331.9
3276.98	24332.3
3279.12	24401.2
3281.25	24403.2
3283.38	24496.7
3285.51	24399.2
3287.64	24557.4
3289.77	24642.5
3291.89	24550.7
3294.02	24604.9
3296.15	24663.4
3298.28	24705.2
3300.4	24806.3
3302.53	24738.9
3304.65	24795.1
3306.77	24826
3308.9	24855.1
3311.02	24953.8
3313.14	24949.3
3315.26	25025.1
3317.38	25009.3
3319.5	25076.2
3321.62	25113.8
3323.74	25092.2
3325.85	25222.2
3327.97	25189.3
3330.08	25278
3332.2	25246.4
3334.31	25371.8
3336.43	25446.2
3338.54	25363.5
3340.65	25406.6
3342.77	25485.7
3344.88	25536.8
3346.99	25574
3349.1	25562
3351.21	25605.5
3353.31	25652.2
3355.42	25643.9
3357.53	25651
3359.63	25638.4
3361.74	25804.6
3363.84	25736.4
3365.95	25800.8
3368.05	25806.6
3370.15	25790.8
3372.26	25873.2
3374.36	25889.9
3376.46	25974.1
3378.56	25949.5
3380.66	25969.9
3382.76	26018.1
3384.85	26018.6
3386.95	26051
3389.05	26088.6
3391.14	26116.1
3393.24	26134.3
3395.33	26152.1
3397.43	26209.2
3399.52	26228.5
3401.61	26283.2
3403.7	26327.9
3405.79	26419.4
3407.89	26312.7
3409.98	26479.2
3412.06	26443.8
3414.15	26498.1
3416.24	26479.6
3418.33	26563.8
3420.41	26594.3
3422.5	26613.8
3424.58	26616.9
3426.67	26668.5
3428.75	26703.4
3430.83	26776.3
3432.92	26773.6
3435	26820
3437.08	26899.8
3439.16	26917.1
3441.24	26924
3443.32	26851.6
3445.4	26912
3447.47	26962.2
3449.55	26997.1
3451.63	26991.6
3453.7	26988.2
3455.78	27044.4
3457.85	27080.4
3459.92	27057.1
3462	27120.4
3464.07	27254
3466.14	27082
3468.21	27155.1
3470.28	27215.1
3472.35	27301.3
3474.42	27152.6
3476.49	27220.4
3478.55	27260.4
3480.62	27356
3482.69	27332.6
3484.75	27396.4
3486.82	27360.2
3488.88	27414.6
3490.94	27550.8
3493.01	27434.8
3495.07	27496.6
3497.13	27551.7
3499.19	27538.8
3501.25	27564.8
3503.31	27555.5
3505.37	27598.6
3507.43	27541.2
3509.48	27626.3
3511.54	27646.6
3513.59	27653.4
3515.65	27660.8
3517.7	27787.4
3519.76	27752.1
3521.81	27793
3523.86	27889
3525.92	27839.4
3527.97	27949.2
3530.02	27884.8
3532.07	27967.6
3534.12	28013.6
3536.16	28012.1
3538.21	28031.8
3540.26	28012.5
3542.31	28086.7
3544.35	28163.4
3546.4	28147.4
3548.44	28208.7
3550.49	28231.4
3552.53	28291.4
3554.57	28302.3
3556.61	28288.3
3558.65	28424.3
3560.69	28607.1
3562.73	28579.4
3564.77	28783.6
3566.81	28956
3568.85	29034.7
3570.89	29174.9
3572.92	29549.6
3574.96	29889.3
3576.99	30296.7
3579.03	30698.2
3581.06	31111.6
3583.1	31540.4
3585.13	31752
3587.16	31720.4
3589.19	31491.3
3591.22	31398.9
3593.25	31398.2
3595.28	31785.3
3597.31	32901.1
3599.34	36226.6
3601.36	42549.1
3603.39	44615.7
3605.42	41440.2
3607.44	37463.1
3609.47	33314.2
3611.49	30652.2
3613.51	29676.4
3615.53	29277.3
3617.56	29173.7
3619.58	29005.9
3621.6	28921.3
3623.62	28936.6
3625.64	28902.4
3627.66	28905.9
3629.67	28952.8
3631.69	28867
3633.71	28975
3635.72	28940.1
3637.74	28878.3
3639.75	28971.7
3641.77	28937.2
3643.78	28946.6
3645.79	28974.5
3647.8	28991.7
3649.82	28833
3651.83	28936.3
3653.84	28905.4
3655.85	28931.9
3657.85	28941.2
3659.86	28819.9
3661.87	28899
3663.88	28865.2
3665.88	28883.4
3667.89	28924.5
3669.89	28885.6
3671.9	28946.3
3673.9	28872.3
3675.9	28851.2
3677.9	28946
3679.91	28824
3681.91	28863.2
3683.91	28928
3685.91	28898.3
3687.9	29038.3
3689.9	28954.5
3691.9	29029.1
3693.9	29041.4
3695.89	29112.5
3697.89	29110.5
3699.88	29164.7
3701.88	29073.3
3703.87	29108.4
3705.86	29088.9
3707.86	29080.9
3709.85	29083.3
3711.84	29154
3713.83	29201.1
3715.82	29298.2
3717.81	29320.9
3719.8	29349.3
3721.78	29361.1
3723.77	29322
3725.76	29330.2
3727.74	29376
3729.73	29380.4
3731.71	29258.4
3733.7	29355.1
3735.68	29233.5
3737.66	29362.6
3739.64	29208.8
3741.62	29214.2
3743.61	29275.9
3745.58	29183.3
3747.56	29186.8
3749.54	29027
3751.52	29093.9
3753.5	29038.6
3755.47	29044.4
3757.45	29005.5
3759.43	29096.1
3761.4	28965.9
3763.37	28998.1
3765.35	28999.9
3767.32	28928.6
3769.29	28843.7
3771.26	28956.3
3773.24	28865
3775.21	28944.5
3777.17	28867.9
3779.14	28860.8
3781.11	28868.5
3783.08	28794.3
3785.05	28843.4
3787.01	28701.9
3788.98	28733.8
3790.94	28716.7
3792.91	28828.7
3794.87	28770.1
3796.83	28776.1
3798.8	28788.3
3800.76	28779.8
3802.72	28794.3
3804.68	28730.9
3806.64	28639.8
3808.6	28686.9
3810.56	28664.7
3812.51	28607.4
3814.47	28675.6
3816.43	28681.4
3818.38	28642.7
3820.34	28674.2
3822.29	28648.7
3824.25	28588.9
3826.2	28618.4
3828.16	28660
3830.11	28625.6
3832.06	28598.4
3834.01	28642
3835.96	28587.8
3837.91	28510
3839.86	28538.4
3841.81	28518.6
3843.75	28517.7
3845.7	28559.7
3847.65	28548.6
3849.59	28433.1
3851.54	28346
3853.48	28399.7
3855.43	28331.7
3857.37	28413.3
3859.31	28333.9
3861.25	28352.4
3863.2	28260.6
3865.14	28240.4
3867.08	28214.1
3869.01	28213.3
3870.95	28171.3
3872.89	28109.5
3874.83	28076.1
3876.77	28119
3878.7	28098.1
3880.64	28077.7
3882.57	28101.2
3884.51	27947
3886.44	27980.1
3888.37	27887.2
3890.31	27985
3892.24	27912.3
3894.17	27807.7
3896.1	27813
3898.03	27824.1
3899.96	27812.1
3901.89	27701
3903.81	27677.6
3905.74	27549.2
3907.67	27571.6
3909.59	27519
3911.52	27517.2
3913.44	27645.4
3915.37	27506.3
3917.29	27436.1
3919.21	27495.2
3921.14	27482.9
3923.06	27381.6
3924.98	27399.4
3926.9	27395.4
3928.82	27386.5
3930.74	27365.4
3932.66	27292.2
3934.57	27347.4
3936.49	27250.5
3938.41	27220
3940.32	27285.6
3942.24	27237.8
3944.15	27258.2
3946.07	27188.9
3947.98	27252.2
3949.89	27273.3
3951.8	27208.2
3953.72	27312.4
3955.63	27184
3957.54	27160.9
3959.45	27186.2
3961.36	27071.1
3963.26	27037.7
3965.17	27081.1
3967.08	27154.4
3968.98	27028.2
3970.89	27063.3
3972.79	26973.1
3974.7	27019.1
3976.6	26939.3
3978.51	26975.5
3980.41	26913.5
3982.31	26959.3
3984.21	26879.3
3986.11	26839.3
3988.01	26875.3
3989.91	26854.4
3991.81	26834.4
3993.71	26894.8
3995.61	26814.8
3997.51	26821
3999.4	26749.7
