#Acq. time (s)=	10
#Accumulations=	4
#Range (cm-¹)=	60...4000
#Windows=	2
#Auto scanning=	Off
#Autofocus=	Off
#AutoExposure=	Off
#Spike filter=	Multiple accum.
#Delay time (s)=	0
#Binning=	1
#Readout mode=	Signal
#DeNoise=	Off
#ICS correction=	Off
#Dark correction=	Off
#Inst. Process=	Off
#Detector Gain=	Best Dynamic Range
#Detector ADC=	45 kHz       
#Detector temperature (°C)=	-60.1
#Instrument=	XploRA Plus
#Detector=	Syncerity OE
#Objective=	x50_VIS_LWD
#Grating=	1200 (750nm)
#Filter=	50%
#Laser=	532nm_Edge
#Slit (µm)=	100 
#Hole (µm)=	300 
#Temperature=	0
#StageXY=	75x50mm Scan+
#StageZ=	Z motor
#X (µm)=	0
#Y (µm)=	0
#Z (µm)=	-40.2
#Full time(mm:ss)=	1:30
#Project=	
#Sample=	
#Site=	
#Title=	cubic_zirconia_17_02_26_2026_04_01_4_10 s_532nm_Edge_1200 (750nm)_x50_VIS_LWD_100 µm_300 µm_50%
#Remark=	
#Date=	01.04.2026 17:02
#Acquired=	01.04.2026 17:02:42
#AxisType[0]=Intens
#AxisUnit[0]=Cnt
#AxisType[1]=Spectr
#AxisUnit[1]=1/cm
62.8738	8405.67
66.1253	7935
69.3736	7723.67
72.6208	7543
75.869	7476.33
79.1139	7607.67
82.3577	8035.67
85.6003	8464.33
88.844	9211
92.0844	9875
95.3237	9524.33
98.5619	8869
101.799	7940.33
105.035	7418.33
108.27	7210.33
111.503	7317.67
114.736	7953
117.967	10095.7
121.196	13505
124.425	13217
127.653	11065
130.88	8813.67
134.104	6967.67
137.328	6243.67
140.552	5736.33
143.773	5708.33
146.994	5746.33
150.212	6119
153.431	6851
156.647	7758.33
159.862	7853
163.078	7374.33
166.291	6483
169.502	5645.67
172.713	5166.33
175.924	4884.33
179.132	4798.33
182.339	4725
185.545	4766.33
188.75	4746.33
191.954	4759.67
195.157	4721
198.358	4609
201.559	4533
204.758	4599
207.954	4709
211.152	4635
214.348	4509.67
217.543	4392.33
220.734	4337
223.927	4289
227.117	4311.67
230.307	4460.33
233.495	5113
236.683	6578.33
239.868	7877.67
243.055	7614.33
246.238	6962.33
249.42	6524.33
252.603	6923
255.782	9081.67
258.961	11057
262.139	10292.3
265.315	8460.33
268.49	6695.67
271.665	5421.67
274.838	4935.67
278.01	4995.67
281.181	5144.33
284.351	5442.33
287.52	6133.67
290.688	7929.67
293.852	10058.3
297.018	10701
300.183	9837.67
303.344	8396.33
306.506	6951.67
309.665	5956.33
312.826	5217
315.983	4798.33
319.141	4577
322.296	4639.67
325.45	5052.33
328.604	5310.33
331.756	5089.67
334.907	4761.67
338.056	4465
341.205	4198.33
344.352	4157.67
347.498	4269
350.643	4585.67
353.788	4660.33
356.931	4661
360.073	4671.67
363.214	4799.67
366.353	5039.67
369.49	5022.33
372.628	4736.33
375.765	4399.67
378.898	4197
382.033	3929.67
385.164	3863.67
388.296	3789.67
391.426	3730.33
394.556	3685.67
397.683	3671.67
400.809	3673
403.936	3651
407.06	3709
410.183	3723
413.305	3783.67
416.426	4033.67
419.545	4307
422.664	5240.33
425.781	6693
428.898	7557.67
432.013	7073
435.128	6041
438.239	5158.33
441.351	4443.67
444.463	4266.33
447.571	4305
450.68	4390.33
453.786	4636.33
456.893	4667
459.997	4542.33
463.102	4381
466.204	4357
469.305	4448.33
472.406	4459
475.505	4551.67
478.603	4562.33
481.699	4695
484.795	4897.67
487.889	5224.33
490.983	5177.67
494.075	4973
497.166	4633.67
500.257	4328.33
503.346	4105
506.434	4039
509.519	3967
512.606	3930.33
515.691	4006.33
518.773	4076.33
521.856	4127.67
524.936	4272.33
528.017	4395
531.094	4654.33
534.171	4960.33
537.247	5503
540.324	6244.33
543.398	7291.67
546.47	9347
549.542	13089
552.613	17761
555.682	20328.3
558.751	20183
561.818	18723.7
564.885	16426.3
567.95	14407
571.013	13303.7
574.076	13435.7
577.138	13617.7
580.198	12945.7
583.258	10995.7
586.315	9085.67
589.374	7415.67
592.429	6352.33
595.485	5731.67
598.538	5382.33
601.59	5077.67
604.643	4863.67
607.693	4739
610.743	4642.33
613.791	4644.33
616.838	4647
619.884	4741.67
622.929	4821
625.973	4866.33
629.013	4759
632.055	4677.67
635.096	4500.33
638.136	4447
641.173	4375.67
644.211	4350.33
647.246	4390.33
650.282	4424.33
653.314	4531
656.348	4718.33
659.379	5020.33
662.409	5709
665.437	6948.33
668.465	8665
671.494	9619.67
674.52	9012.33
677.544	7649.67
680.568	6292.33
683.589	5414.33
686.61	4971.67
689.631	4823.67
692.651	4635
695.669	4526.33
698.685	4616.33
701.702	4727
704.715	4913.67
707.73	5209.67
710.742	5456.33
713.754	5517
716.764	5536.33
719.772	5590.33
722.78	5655.67
725.789	5569.67
728.794	5321
731.799	5084.33
734.802	4921.67
737.805	4877.67
740.807	4857
743.807	4881
746.805	4799.67
749.804	4828.33
752.801	4895
755.796	4822.33
758.792	4565
761.786	4393
764.778	4253.67
767.769	4135.67
770.76	4075.67
773.749	4095.67
776.737	4088.33
779.725	4061
782.711	4060.33
785.696	4037.67
788.68	3997.67
791.662	4044.33
794.644	4000.33
797.625	3976.33
800.605	3965.67
803.582	3955
806.559	3952.33
809.536	3904.33
812.51	3890.33
815.485	3899
818.457	3925
821.43	3891
824.4	3839.67
827.369	3848.33
830.339	3857
833.306	3823
836.272	3865.67
839.237	3823
842.201	3851
845.164	3855.67
848.126	3872.33
851.087	3895.67
854.047	3883.67
857.007	3994.33
859.963	3953
862.92	3995
865.876	3986.33
868.83	4028.33
871.784	4055
874.735	4161
877.686	4221
880.637	4350.33
883.586	4339
886.533	4379.67
889.48	4476.33
892.425	4647
895.37	5029.67
898.313	5441.67
901.256	5603.67
904.198	5425
907.138	5191
910.078	4906.33
913.015	4774.33
915.953	4715
918.888	4717
921.824	4694.33
924.757	4619
927.691	4512.33
930.622	4530.33
933.552	4565
936.481	4572.33
939.411	4675
942.338	4889
945.264	5427
948.19	6175
951.114	6539.67
954.035	6464.33
956.958	6146.33
959.879	6062.33
962.8	6350.33
965.717	7238.33
968.636	9075
971.552	11041
974.468	11243.7
977.382	9952.33
980.295	8268.33
983.209	6686.33
986.12	5695.67
989.03	5287.67
991.939	4998.33
994.847	4946.33
997.754	4948.33
1000.66	4978.33
1003.57	5113
1006.47	5494.33
1009.37	5941.67
1012.27	6203
1015.17	6174.33
1018.07	6028.33
1020.97	5634.33
1023.87	5335.67
1026.77	4987
1029.66	4865
1032.56	4699
1035.45	4632.33
1038.34	4629
1041.23	4603.67
1044.12	4596.33
1047.01	4545.67
1049.9	4579
1052.78	4553.67
1055.67	4565.67
1058.56	4587
1061.44	4632.33
1064.32	4621.67
1067.2	4690.42
1070.08	4689.85
1072.96	4694.6
1075.84	4710.69
1078.72	4738.78
1081.6	4712.88
1084.47	4763.63
1087.35	4755.06
1090.22	4759.15
1093.09	4849.24
1095.96	4910.66
1098.83	4980.08
1101.7	5181.51
1104.57	5373.6
1107.43	5693.69
1110.3	5923.78
1113.16	5817.2
1116.03	5525.29
1118.89	5296.71
1121.75	5109.47
1124.61	4950.9
1127.47	4889.65
1130.33	4857.74
1133.19	4911.17
1136.04	4815.26
1138.9	4862.01
1141.75	4859.44
1144.61	4939.53
1147.46	4962.95
1150.31	5051.71
1153.16	5055.13
1156.01	5115.22
1158.86	5223.98
1161.7	5200.74
1164.55	5198.16
1167.39	5289.58
1170.24	5359.01
1173.08	5603.76
1175.92	5968.52
1178.76	6421.94
1181.6	6863.37
1184.44	7076.12
1187.28	6946.88
1190.12	6656.3
1192.95	6151.06
1195.79	5687.82
1198.62	5423.24
1201.45	5168.67
1204.28	5036.76
1207.11	4952.85
1209.94	4870.27
1212.77	4822.36
1215.6	4823.78
1218.42	4776.54
1221.25	4819.96
1224.07	4855.39
1226.9	4804.14
1229.72	4770.9
1232.54	4700.33
1235.36	4748.42
1238.18	4759.84
1241	4741.26
1243.81	4762.02
1246.63	4854.11
1249.44	4776.87
1252.26	4771.62
1255.07	4851.71
1257.88	4871.14
1260.69	4901.89
1263.5	4924.65
1266.31	4974.08
1269.12	5025.5
1271.92	5160.92
1274.73	5038.35
1277.53	5053.1
1280.34	5016.53
1283.14	5056.62
1285.94	5037.37
1288.74	5044.8
1291.54	5122.22
1294.34	5144.31
1297.14	5164.4
1299.93	5303.82
1302.73	5292.58
1305.52	5308
1308.31	5304.76
1311.11	5354.19
1313.9	5327.61
1316.69	5293.03
1319.48	5275.79
1322.26	5333.88
1325.05	5304.64
1327.84	5278.73
1330.62	5270.15
1333.41	5312.24
1336.19	5375.66
1338.97	5255.75
1341.75	5359.18
1344.53	5308.6
1347.31	5289.36
1350.09	5262.78
1352.87	5301.54
1355.64	5290.96
1358.42	5277.72
1361.19	5249.14
1363.96	5273.9
1366.74	5257.99
1369.51	5281.41
1372.28	5285.5
1375.04	5342.93
1377.81	5594.35
1380.58	6296.44
1383.34	6719.2
1386.11	6363.29
1388.87	6000.05
1391.63	5606.14
1394.4	5479.56
1397.16	5420.32
1399.92	5417.74
1402.67	5455.16
1405.43	5422.59
1408.19	5462.01
1410.95	5449.44
1413.7	5478.86
1416.45	5500.28
1419.21	5586.37
1421.96	5595.8
1424.71	5596.55
1427.46	5648.64
1430.21	5754.07
1432.95	5794.82
1435.7	5831.58
1438.45	5875.67
1441.19	5920.43
1443.93	5884.52
1446.68	5886.61
1449.42	5845.36
1452.16	5861.46
1454.9	5836.21
1457.64	5845.64
1460.37	5756.39
1463.11	5773.15
1465.85	5709.24
1468.58	5766
1471.31	5629.42
1474.05	5670.84
1476.78	5638.27
1479.51	5576.36
1482.24	5606.45
1484.97	5605.87
1487.69	5604.63
1490.42	5656.72
1493.15	5638.14
1495.87	5631.57
1498.59	5668.32
1501.32	5675.08
1504.04	5737.17
1506.76	5736.59
1509.48	5671.35
1512.2	5766.77
1514.91	5771.53
1517.63	5778.96
1520.35	5788.38
1523.06	5803.14
1525.77	5899.23
1528.49	5889.98
1531.2	5895.41
1533.91	5887.5
1536.62	5951.59
1539.33	5944.34
1542.04	5944.43
1544.74	6011.86
1547.45	5975.28
1550.15	5990.04
1552.85	5994.13
1555.56	6044.22
1558.26	6014.98
1560.96	6038.4
1563.66	6021.16
1566.36	6103.25
1569.06	6105.34
1571.75	6067.43
1574.45	6146.18
1577.14	6146.27
1579.84	6179.03
1582.53	6199.12
1585.22	6206.54
1587.91	6163.97
1590.6	6260.73
1593.29	6254.15
1595.98	6278.91
1598.67	6305.66
1601.35	6325.09
1604.04	6359.18
1606.72	6361.27
1609.4	6400.02
1612.09	6371.45
1614.77	6352.87
1617.45	6397.63
1620.13	6379.72
1622.8	6391.81
1625.48	6408.56
1628.16	6437.99
1630.83	6461.41
1633.51	6440.17
1636.18	6443.59
1638.85	6487.68
1641.52	6487.77
1644.19	6485.86
1646.86	6502.62
1649.53	6602.04
1652.2	6586.8
1654.86	6654.89
1657.53	6623.65
1660.2	6636.4
1662.86	6625.16
1665.52	6580.59
1668.18	6626.01
1670.84	6576.1
1673.5	6555.52
1676.16	6514.95
1678.82	6662.37
1681.47	6555.79
1684.13	6523.22
1686.79	6529.31
1689.44	6531.4
1692.09	6613.49
1694.74	6634.25
1697.39	6568.34
1700.04	6636.43
1702.69	6592.52
1705.34	6615.27
1707.99	6663.36
1710.64	6621.45
1713.28	6657.54
1715.92	6696.3
1718.57	6693.72
1721.21	6748.48
1723.85	6738.57
1726.49	6792.66
1729.13	6791.42
1731.77	6814.18
1734.41	6790.27
1737.04	6875.69
1739.68	6891.11
1742.31	6929.87
1744.94	6927.96
1747.58	6996.72
1750.21	6978.81
1752.84	6972.9
1755.47	6960.99
1758.1	7053.08
1760.73	7079.17
1763.35	7055.93
1765.98	7101.35
1768.6	7110.77
1771.23	7094.86
1773.85	7120.29
1776.47	7140.38
1779.09	7143.13
1781.71	7237.22
1784.33	7153.98
1786.95	7189.4
1789.57	7272.16
1792.18	7294.92
1794.8	7283.01
1797.41	7221.77
1800.03	7304.52
1802.64	7300.61
1805.25	7365.37
1807.86	7349.46
1810.47	7352.22
1813.08	7424.31
1815.69	7392.4
1818.29	7338.49
1820.9	7377.91
1823.5	7467.33
1826.11	7518.09
1828.71	7454.85
1831.31	7532.27
1833.91	7565.03
1836.51	7608.45
1839.11	7622.54
1841.71	7629.97
1844.31	7593.39
1846.9	7686.81
1849.5	7652.9
1852.09	7638.99
1854.69	7755.75
1857.28	7747.84
1859.87	7821.93
1862.46	7853.35
1865.05	7862.11
1867.64	7810.87
1870.23	7930.96
1872.81	7929.05
1875.4	7974.47
1877.98	8049.9
1880.57	7955.99
1883.15	7959.41
1885.73	8051.5
1888.31	8044.26
1890.89	8046.35
1893.47	8081.77
1896.05	8188.53
1898.63	8176.62
1901.2	8202.04
1903.78	8184.8
1906.35	8253.56
1908.93	8204.31
1911.5	8245.07
1914.07	8259.16
1916.64	8291.92
1919.21	8357.34
1921.78	8403.43
1924.35	8334.85
1926.92	8402.94
1929.48	8373.04
1932.05	8410.46
1934.61	8483.22
1937.17	8549.31
1939.74	8538.73
1942.3	8581.49
1944.86	8589.58
1947.42	8659
1949.98	8729.76
1952.53	8649.18
1955.09	8700.6
1957.65	8742.03
1960.2	8774.12
1962.76	8826.88
1965.31	8850.97
1967.86	8926.39
1970.41	8900.48
1972.96	8940.57
1975.51	8952.66
1978.06	9016.75
1980.61	9049.51
1983.15	9054.93
1985.7	9156.35
1988.24	9147.11
1990.79	9153.2
1993.33	9217.96
1995.87	9214.05
1998.41	9310.14
2000.95	9307.56
2003.49	9270.99
2006.03	9337.74
2008.57	9335.83
2011.1	9417.26
2013.64	9434.68
2016.17	9490.1
2018.71	9456.86
2021.24	9454.95
2023.77	9463.71
2026.3	9527.13
2028.83	9547.22
2031.36	9607.98
2033.89	9626.74
2036.41	9664.16
2038.94	9659.58
2041.47	9705.67
2043.99	9761.1
2046.51	9602.52
2049.04	9732.61
2051.56	9822.7
2054.08	9788.79
2056.6	9810.21
2059.12	9848.97
2061.63	9954.39
2064.15	9957.82
2066.67	9966.58
2069.18	10029.3
2071.7	10153.4
2074.21	10108.2
2076.72	10226.3
2079.23	10238.4
2081.74	10245.8
2084.25	10301.9
2086.76	10366.6
2089.27	10449.4
2091.78	10416.8
2094.28	10498.9
2096.79	10609
2099.29	10635.1
2101.8	10640.5
2104.3	10656.6
2106.8	10747.4
2109.3	10699.4
2111.8	10802.9
2114.3	10899.6
2116.79	10905.7
2119.29	10931.8
2121.79	10959.2
2124.28	10979.3
2126.78	10979.4
2129.27	11037.5
2131.76	11046.9
2134.25	11047
2136.74	11081.8
2139.23	11114.5
2141.72	11163.3
2144.21	11194.7
2146.7	11132.8
2149.18	11088.2
2151.67	11250.3
2154.15	11235.7
2156.63	11239.8
2159.12	11258.6
2161.6	11304.7
2164.08	11253.4
2166.56	11304.9
2169.04	11322.3
2171.51	11349
2173.99	11399.1
2176.47	11377.9
2178.94	11388
2181.42	11479.4
2183.89	11516.2
2186.36	11430.2
2188.83	11591.7
2191.3	11575.1
2193.77	11693.8
2196.24	11701.9
2198.71	11812
2201.18	11844.1
2203.64	11916.2
2206.11	11927
2208.57	11961.7
2211.04	12039.8
2213.5	12057.2
2215.96	12131.3
2218.42	12196.7
2220.88	12326.8
2223.34	12307.6
2225.8	12454.4
2228.25	12472.4
2230.71	12586.5
2233.17	12531.3
2235.62	12652.7
2238.07	12748.8
2240.52	12854.2
2242.98	12905.7
2245.43	12878.4
2247.88	13033.2
2250.33	13054.6
2252.77	13134
2255.22	13160.8
2257.67	13230.9
2260.11	13192.9
2262.56	13317.7
2265	13276.5
2267.44	13391.9
2269.89	13378
2272.33	13410.7
2274.77	13524.8
2277.21	13468.2
2279.65	13522.3
2282.08	13567.8
2284.52	13596.5
2286.96	13546.6
2289.39	13567.4
2291.82	13616.8
2294.26	13666.9
2296.69	13735
2299.12	13809.7
2301.55	13683.8
2303.98	13803.2
2306.41	13797.3
2308.83	13824.8
2311.26	13800.8
2313.69	13915.6
2316.11	14011.7
2318.54	14024.4
2320.96	14081.2
2323.38	14048
2325.8	14165.4
2328.22	14230.1
2330.65	14299.6
2333.06	14321
2335.48	14376.4
2337.9	14397.8
2340.31	14395.3
2342.73	14472.7
2345.14	14560.8
2347.56	14631.5
2349.97	14597.6
2352.38	14689.7
2354.79	14748.5
2357.2	14945.9
2359.61	14916
2362.02	14995.4
2364.43	15045.5
2366.83	15098.9
2369.24	15218.3
2371.64	15215.8
2374.05	15289.9
2376.45	15377.3
2378.85	15372.7
2381.26	15443.5
2383.65	15535.6
2386.06	15539.6
2388.45	15731.1
2390.85	15756.5
2393.25	15848.6
2395.64	15882
2398.04	15938.1
2400.43	16002.9
2402.83	15992.3
2405.22	16009.7
2407.61	16129.8
2410	16209.9
2412.39	16295.3
2414.78	16234.7
2417.17	16262.8
2419.56	16424.9
2421.94	16422.3
2424.33	16489.8
2426.71	16478.5
2429.1	16573.9
2431.48	16668.7
2433.86	16634.8
2436.24	16646.9
2438.62	16694.3
2441	16824.4
2443.38	16809.8
2445.76	16815.9
2448.14	16896.7
2450.51	16888.1
2452.89	16970.8
2455.26	17014.9
2457.63	17112.3
2460.01	17229.8
2462.38	17241.9
2464.75	17232
2467.12	17348.7
2469.49	17264.1
2471.86	17269.6
2474.22	17507.6
2476.59	17455.1
2478.96	17571.2
2481.32	17633.9
2483.69	17648.7
2486.05	17649.4
2488.41	17641.5
2490.77	17714.9
2493.13	17892.4
2495.49	17903.8
2497.85	17930.6
2500.21	17954.6
2502.56	17942.7
2504.92	18022.8
2507.28	18193.6
2509.63	18123
2511.99	18243.8
2514.34	18320.5
2516.69	18288.6
2519.04	18424.7
2521.39	18417.5
2523.74	18535.5
2526.09	18480.3
2528.44	18631.1
2530.78	18639.1
2533.13	18669.9
2535.47	18613.3
2537.82	18846.1
2540.16	18822.8
2542.5	18814.3
2544.85	18942.4
2547.19	18942.4
2549.53	19129.2
2551.87	19070
2554.2	19283.4
2556.54	19291.5
2558.88	19368.9
2561.21	19335
2563.55	19435.5
2565.88	19553.3
2568.21	19518.8
2570.55	19591
2572.88	19644.4
2575.21	19600.8
2577.54	19691.7
2579.87	19809.6
2582.19	19860.1
2584.52	19927.5
2586.85	20026.1
2589.17	20036.6
2591.5	20106.1
2593.82	20060.9
2596.15	20122.4
2598.47	20346
2600.79	20321
2603.11	20350.2
2605.43	20447.5
2607.75	20490.5
2610.07	20543.6
2612.38	20658.5
2614.7	20702.9
2617.01	20727.6
2619.33	20772.1
2621.64	20766.6
2623.96	20967.7
2626.27	20890.2
2628.58	20975
2630.89	21057
2633.2	21159.4
2635.51	21050.9
2637.81	21213.8
2640.12	21194.1
2642.43	21325.7
2644.73	21352.7
2647.04	21402.3
2649.34	21486.2
2651.64	21535.3
2653.94	21494.9
2656.25	21624.9
2658.55	21654.4
2660.85	21715.2
2663.14	21656.5
2665.44	21780.5
2667.74	21829.6
2670.03	21865.1
2672.33	21937
2674.62	21953.9
2676.92	21982.9
2679.21	22025.3
2681.5	22131.5
2683.79	22195.8
2686.08	22251.6
2688.37	22319
2690.66	22394.5
2692.95	22404.3
2695.24	22403.3
2697.52	22475.4
2699.81	22525.8
2702.09	22670
2704.37	22747.7
2706.66	22792.6
2708.94	22824.9
2711.22	22854.1
2713.5	22981.6
2715.78	23089.5
2718.06	23094.6
2720.33	23227
2722.61	23298.4
2724.89	23361.3
2727.16	23394.6
2729.44	23466.5
2731.71	23548.6
2733.98	23605.6
2736.26	23664
2738.53	23711.3
2740.8	23792.5
2743.07	23846.1
2745.33	23954.3
2747.6	23993
2749.87	24046.4
2752.14	24026.2
2754.4	24049.6
2756.66	24112.9
2758.93	24220.2
2761.19	24350.2
2763.45	24402.7
2765.72	24427.5
2767.98	24551.2
2770.23	24658.6
2772.49	24678.2
2774.75	24824.9
2777.01	24731.7
2779.26	24837.4
2781.52	24829.9
2783.77	25081.6
2786.03	24992.6
2788.28	25170.8
2790.53	25189.6
2792.78	25316.2
2795.03	25275.2
2797.28	25305.9
2797.45	25308.9
2799.74	25424.8
2802.03	25516.1
2804.32	25570
2806.6	25600.6
2808.89	25537.2
2811.17	25702.4
2813.46	25705.7
2815.74	25862.9
2818.02	25918.8
2820.3	25852.7
2822.58	25950
2824.86	25918.6
2827.14	26139.1
2829.42	26221.7
2831.7	26285.6
2833.98	26375.5
2836.25	26504.1
2838.53	26725.4
2840.8	26655.3
2843.08	26916.5
2845.35	27056.5
2847.62	27371.7
2849.9	27761
2852.17	28112.9
2854.44	28510.8
2856.71	28505.4
2858.98	28649.9
2861.24	28557.2
2863.51	28632.4
2865.78	28641
2868.04	28649.6
2870.31	28768.2
2872.57	28772.8
2874.84	28843.3
2877.1	29009.3
2879.36	29123.8
2881.62	29417.8
2883.89	29417.7
2886.15	29558.9
2888.41	29771.5
2890.66	29729.4
2892.92	29834.7
2895.18	29971.2
2897.44	29905.8
2899.69	29989.7
2901.95	30007.7
2904.2	30337.6
2906.46	30222.8
2908.71	30441.4
2910.96	30419.3
2913.21	30350.6
2915.46	30543.8
2917.71	30613.7
2919.96	30541.6
2922.21	30519.6
2924.46	30778.8
2926.71	30747.4
2928.95	30854.6
2931.2	30893.9
2933.44	30958.5
2935.68	31021
2937.93	31063.6
2940.17	31255.5
2942.41	31097.5
2944.65	31137.4
2946.89	31067.3
2949.13	30785.2
2951.37	30923.1
2953.61	30951.7
2955.85	30785.6
2958.09	30761.5
2960.32	30750.8
2962.56	30833.4
2964.79	30929.3
2967.03	30953.2
2969.26	30952.4
2971.49	31092.3
2973.72	31079.6
2975.95	31100.2
2978.18	31145.4
2980.41	30891.3
2982.64	30943.9
2984.87	30969.8
2987.1	31187.1
2989.33	31385.7
2991.55	31362.2
2993.78	31243.5
2996	31364.1
2998.22	31294
3000.45	31378.6
3002.67	31434.5
3004.89	31583.7
3007.11	31499.6
3009.33	31356.9
3011.55	31585.5
3013.77	31566.1
3015.99	31554.6
3018.21	31703.9
3020.42	31644.5
3022.64	31583.7
3024.85	31774.3
3027.07	31720.9
3029.28	31712.8
3031.49	31880
3033.71	31894.6
3035.92	32031.9
3038.13	32131.8
3040.34	32128.4
3042.55	32147.6
3044.76	32184.9
3046.97	32220.1
3049.17	32293.4
3051.38	32497.3
3053.58	32371.9
3055.79	32458.4
3058	32445.7
3060.2	32460.9
3062.4	32577.5
3064.6	32710.8
3066.8	32665.3
3069.01	32815.9
3071.21	32783.2
3073.41	32901.8
3075.6	33011.7
3077.8	32906.3
3080	32965.5
3082.2	33111.4
3084.39	33056
3086.59	33125.2
3088.78	33218.5
3090.97	33194.4
3093.17	33262.3
3095.36	33490.2
3097.55	33476.1
3099.74	33452.7
3101.93	33507.3
3104.12	33604.6
3106.31	33615.1
3108.5	33631.7
3110.68	33650.3
3112.87	33838.9
3115.06	33850.8
3117.24	33976
3119.43	33994.6
3121.61	34044.5
3123.79	34075.8
3125.98	34141
3128.16	34012.9
3130.34	34296.2
3132.52	34179.4
3134.7	34403.4
3136.88	34343.3
3139.05	34523.9
3141.23	34575.1
3143.41	34556.4
3145.58	34570.3
3147.76	34590.2
3149.93	34694.1
3152.11	34711.3
3154.28	34726.6
3156.45	34833.2
3158.63	34860.4
3160.8	34960.3
3162.97	35041.6
3165.14	35080.8
3167.3	34880.8
3169.47	35128
3171.64	35079.9
3173.81	35110.5
3175.97	35132.4
3178.14	35358.3
3180.3	35379.6
3182.47	35281.5
3184.63	35360.1
3186.79	35428.6
3188.95	35429.9
3191.11	35467.8
3193.28	35481.7
3195.43	35674.3
3197.59	35612.2
3199.75	35554.1
3201.91	35560.7
3204.07	35648.6
3206.22	35770.5
3208.38	35914.5
3210.53	35801.7
3212.69	35921.6
3214.84	35932.2
3216.99	36000.1
3219.14	36144
3221.3	36227.3
3223.45	36275.2
3225.6	36164.4
3227.75	36350.4
3229.89	36324.3
3232.04	36557.5
3234.19	36589.4
3236.34	36562
3238.48	36505.3
3240.62	36628.5
3242.77	36694.4
3244.91	36679.7
3247.06	36872.9
3249.2	36963.5
3251.34	36922.8
3253.48	37040
3255.62	36967.3
3257.76	37083.2
3259.9	37170.4
3262.04	37425
3264.17	37122.2
3266.31	37240.8
3268.45	37379.4
3270.58	37512
3272.72	37504.6
3274.85	37819.1
3276.98	37637.7
3279.12	37771.6
3281.25	37870.9
3283.38	37883.5
3285.51	37964.1
3287.64	37856
3289.77	38078.6
3291.89	38095.1
3294.02	37895
3296.15	38195
3298.28	38304.9
3300.4	38202.1
3302.53	38297.4
3304.65	38256
3306.77	38394.5
3308.9	38355.1
3311.02	38562.4
3313.14	38430.9
3315.26	38487.5
3317.38	38710.1
3319.5	38547.4
3321.62	38801.9
3323.74	38854.5
3325.85	38811.8
3327.97	38954.3
3330.08	38857.6
3332.2	38928.8
3334.31	39045.4
3336.43	39089.3
3338.54	39075.3
3340.65	39193.2
3342.77	39267.1
3344.88	39361
3346.99	39302.2
3349.1	39410.8
3351.21	39447.4
3353.31	39434.7
3355.42	39519.9
3357.53	39493.8
3359.63	39441.7
3361.74	39606.3
3363.84	39578.2
3365.95	39566.8
3368.05	39616.7
3370.15	39724.6
3372.26	39653.9
3374.36	39545.8
3376.46	39827.1
3378.56	39917.6
3380.66	39845.6
3382.76	39961.5
3384.85	39949.4
3386.95	39865.3
3389.05	40135.2
3391.14	40185.8
3393.24	40033
3395.33	40213.6
3397.43	40366.2
3399.52	40405.4
3401.61	40392.7
3403.7	40382.6
3405.79	40387.2
3407.89	40291.8
3409.98	40454.4
3412.06	40470.3
3414.15	40495.5
3416.24	40742.8
3418.33	40784.7
3420.41	40635.9
3422.5	40670.5
3424.58	40806.4
3426.67	40954.3
3428.75	40898.3
3430.83	41086.2
3432.92	41007.4
3435	40932.7
3437.08	41001.2
3439.16	41020.5
3441.24	40972.4
3443.32	41161
3445.4	41304.9
3447.47	41241.5
3449.55	41160.7
3451.63	41218
3453.7	41167.9
3455.78	41357.1
3457.85	41520.4
3459.92	41491.6
3462	41635.6
3464.07	41604.1
3466.14	41418.1
3468.21	41562
3470.28	41432.5
3472.35	41587.8
3474.42	41614.4
3476.49	41757.6
3478.55	41621.5
3480.62	41597.5
3482.69	41867.4
3484.75	41834.6
3486.82	41699.9
3488.88	41700.4
3490.94	41990.4
3493.01	41946.3
3495.07	42020.9
3497.13	42026.8
3499.19	42186.7
3501.25	42141.9
3503.31	42113.8
3505.37	42079.1
3507.43	42187.7
3509.48	42109.6
3511.54	42438.2
3513.59	42252.1
3515.65	42339.3
3517.7	42458.6
3519.76	42480.5
3521.81	42497.1
3523.86	42635.7
3525.92	42630.9
3527.97	42591.5
3530.02	42812.7
3532.07	42818.7
3534.12	42681.9
3536.16	42933.2
3538.21	43001.1
3540.26	42961.6
3542.31	42981.6
3544.35	42984.1
3546.4	43153.4
3548.44	43212.6
3550.49	43127.2
3552.53	43370.5
3554.57	43265
3556.61	43389
3558.65	43632.9
3560.69	43696.1
3562.73	44017.4
3564.77	44154
3566.81	44491.9
3568.85	44723.8
3570.89	45116.4
3572.92	45868.9
3574.96	46396.9
3576.99	47397.4
3579.03	48244.7
3581.06	48876.6
3583.1	49268.5
3585.13	49448.4
3587.16	49325.7
3589.19	48812.9
3591.22	48219.5
3593.25	47936.1
3595.28	48384.7
3597.31	49737.3
3599.34	53945.2
3601.36	61826.4
3603.39	64245
3605.42	58674.9
3607.44	53467.5
3609.47	48704.1
3611.49	45948.7
3613.51	45193.2
3615.53	44439.8
3617.56	44504.4
3619.58	44091
3621.6	44000.2
3623.62	44022.8
3625.64	44174.1
3627.66	44022
3629.67	44143.2
3631.69	44077.8
3633.71	44261.7
3635.72	43947
3637.74	44161.6
3639.75	44208.8
3641.77	44196
3643.78	44140
3645.79	44189.2
3647.8	44138.5
3649.82	44211.7
3651.83	44129
3653.84	43962.9
3655.85	43986.8
3657.85	43994
3659.86	44081.9
3661.87	44142.5
3663.88	44036.4
3665.88	43905
3667.89	44012.9
3669.89	43990.8
3671.9	43919.4
3673.9	44024
3675.9	43819.3
3677.9	43911.8
3679.91	43852.4
3681.91	44024.3
3683.91	44172.3
3685.91	43992.8
3687.9	44098.1
3689.9	43998
3691.9	44254.6
3693.9	44155.8
3695.89	44253.7
3697.89	44283
3699.88	44288.9
3701.88	44086.2
3703.87	44073.4
3705.86	44382
3707.86	44234.6
3709.85	44319.1
3711.84	44467.1
3713.83	44433
3715.82	44472.2
3717.81	44410.8
3719.8	44641.4
3721.78	44596
3723.77	44627.2
3725.76	44566.5
3727.74	44578.4
3729.73	44495
3731.71	44603.5
3733.7	44602.1
3735.68	44382
3737.66	44618
3739.64	44449.2
3741.62	44302.4
3743.61	44273
3745.58	44188.9
3747.56	44550.9
3749.54	44440.8
3751.52	44382.7
3753.5	44149.3
3755.47	44066.5
3757.45	44302.4
3759.43	44174.3
3761.4	44161.6
3763.37	44077.5
3765.35	44180.8
3767.32	44174.7
3769.29	44104.6
3771.26	44115.8
3773.24	43989.8
3775.21	44108.3
3777.17	44174.9
3779.14	44073.5
3781.11	43931.4
3783.08	43934.7
3785.05	44007.9
3787.01	43853.8
3788.98	43924.4
3790.94	43919
3792.91	43822.9
3794.87	43936.8
3796.83	43845.4
3798.8	43967.3
3800.76	43883.2
3802.72	43862.5
3804.68	43956.4
3806.64	43999
3808.6	43836.9
3810.56	43795.5
3812.51	43766
3814.47	43807.3
3816.43	43691.2
3818.38	43769.8
3820.34	43729
3822.29	43769.6
3824.25	43734.9
3826.2	43620.1
3828.16	43908.7
3830.11	43687.9
3832.06	43623.9
3834.01	43691.8
3835.96	43609
3837.91	43702.3
3839.86	43431.5
3841.81	43630.1
3843.75	43582
3845.7	43387.9
3847.65	43490.5
3849.59	43521.8
3851.54	43425.7
3853.48	43477.6
3855.43	43383.5
3857.37	43392.1
3859.31	43460.7
3861.25	43369.2
3863.2	43193.8
3865.14	43301.1
3867.08	43343
3869.01	43128.2
3870.95	43242.8
3872.89	43195.4
3874.83	43215.3
3876.77	42801.2
3878.7	42971.1
3880.64	42871.7
3882.57	43035.6
3884.51	42830.2
3886.44	42814.1
3888.37	42748.7
3890.31	42776
3892.24	42667.9
3894.17	42603.8
3896.1	42752.4
3898.03	42617
3899.96	42412.9
3901.89	42609.4
3903.81	42322.7
3905.74	42348.6
3907.67	42383.9
3909.59	42282.4
3911.52	42436.4
3913.44	42180.3
3915.37	42360.9
3917.29	42283.4
3919.21	42167.3
3921.14	42225.9
3923.06	42184.5
3924.98	42087.1
3926.9	42200.3
3928.82	42162.9
3930.74	42137.5
3932.66	42056.1
3934.57	42032
3936.49	41980.6
3938.41	42024.5
3940.32	41948.4
3942.24	41981.7
3944.15	41958.9
3946.07	41979.5
3947.98	41995.4
3949.89	41870
3951.8	41907.2
3953.72	41869.1
3955.63	41939.7
3957.54	41707
3959.45	41748.2
3961.36	41812.8
3963.26	41830.7
3965.17	41704
3967.08	41817.2
3968.98	41599.8
3970.89	41544.4
3972.79	41752.3
3974.7	41730.9
3976.6	41800.8
3978.51	41625.4
3980.41	41364.6
3982.31	41593.9
3984.21	41487.8
3986.11	41481
3988.01	41504.9
3989.91	41331.5
3991.81	41503.4
3993.71	41688
3995.61	41409.3
3997.51	41457.9
3999.4	41373.1
