#Acq. time (s)=	10
#Accumulations=	4
#Range (cm-¹)=	60...4000
#Windows=	2
#Auto scanning=	Off
#Autofocus=	Off
#AutoExposure=	Off
#Spike filter=	Multiple accum.
#Delay time (s)=	0
#Binning=	1
#Readout mode=	Signal
#DeNoise=	Off
#ICS correction=	Off
#Dark correction=	Off
#Inst. Process=	Off
#Detector Gain=	Best Dynamic Range
#Detector ADC=	45 kHz       
#Detector temperature (°C)=	-60.1
#Instrument=	XploRA Plus
#Detector=	Syncerity OE
#Objective=	x50_VIS_LWD
#Grating=	1200 (750nm)
#Filter=	50%
#Laser=	532nm_Edge
#Slit (µm)=	100 
#Hole (µm)=	300 
#Temperature=	0
#StageXY=	75x50mm Scan+
#StageZ=	Z motor
#X (µm)=	0
#Y (µm)=	0
#Z (µm)=	-0.2
#Full time(mm:ss)=	1:44
#Project=	
#Sample=	
#Site=	
#Title=	cubic_zirconia_16_19_38_2026_04_01_4_10 s_532nm_Edge_1200 (750nm)_x50_VIS_LWD_100 µm_300 µm_50%
#Remark=	
#Date=	01.04.2026 16:20
#Acquired=	01.04.2026 16:20:03
#AxisType[0]=Intens
#AxisUnit[0]=Cnt
#AxisType[1]=Spectr
#AxisUnit[1]=1/cm
62.8738	528.333
66.1253	531.667
69.3736	542.333
72.6208	519.667
75.869	477
79.1139	505
82.3577	486.333
85.6003	475
88.844	457.667
92.0844	442.333
95.3237	445.667
98.5619	445.667
101.799	425.667
105.035	398.333
108.27	406.333
111.503	381.667
114.736	397
117.967	387.667
121.196	400.333
124.425	393.667
127.653	391
130.88	369.667
134.104	369.667
137.328	371.667
140.552	351
143.773	355.667
146.994	341
150.212	324.333
153.431	355
156.647	338.333
159.862	346.333
163.078	329
166.291	339.667
169.502	323
172.713	334.333
175.924	317
179.132	334.333
182.339	331
185.545	310.333
188.75	320.333
191.954	324.333
195.157	313.667
198.358	316.333
201.559	321
204.758	295
207.954	314.333
211.152	317
214.348	309
217.543	323
220.734	310.333
223.927	320.333
227.117	307
230.307	331
233.495	331.667
236.683	336.333
239.868	327.667
243.055	325
246.238	309.667
249.42	312.333
252.603	329
255.782	315.667
258.961	345
262.139	338.333
265.315	317
268.49	320.333
271.665	322.333
274.838	333.667
278.01	330.333
281.181	321
284.351	314.333
287.52	329
290.688	325.667
293.852	327.667
297.018	333
300.183	323.667
303.344	334.333
306.506	334.333
309.665	329.667
312.826	326.333
315.983	309.667
319.141	332.333
322.296	337.667
325.45	320.333
328.604	330.333
331.756	323
334.907	319.667
338.056	335.667
341.205	337
344.352	327.667
347.498	335
350.643	347.667
353.788	350.333
356.931	374.333
360.073	358.333
363.214	375.667
366.353	416.333
369.49	476.333
372.628	773.667
375.765	2347
378.898	3795.67
382.033	3359
385.164	2556.33
388.296	1454.33
391.426	619
394.556	509
397.683	501
400.809	521.667
403.936	609
407.06	799.667
410.183	1499.67
413.305	5782.33
416.426	13789.7
419.545	13422.3
422.664	10236.3
425.781	6759.67
428.898	2871.67
432.013	2109.67
435.128	1654.33
438.239	1154.33
441.351	656.333
444.463	581
447.571	723.667
450.68	717
453.786	628.333
456.893	533.667
459.997	379
463.102	354.333
466.204	338.333
469.305	321
472.406	341
475.505	334.333
478.603	339.667
481.699	327
484.795	323
487.889	327
490.983	337
494.075	329
497.166	323.667
500.257	327
503.346	332.333
506.434	330.333
509.519	331
512.606	321.667
515.691	327
518.773	343.667
521.856	343
524.936	347
528.017	332.333
531.094	345.667
534.171	350.333
537.247	361
540.324	359.667
543.398	365.667
546.47	389.667
549.542	388.333
552.613	385.667
555.682	411
558.751	401
561.818	406.333
564.885	421
567.95	457.667
571.013	576.333
574.076	999
577.138	1272.33
580.198	1159
583.258	947.667
586.315	665.667
589.374	463.667
592.429	443.667
595.485	429
598.538	413
601.59	431
604.643	444.333
607.693	432.333
610.743	423
613.791	470.333
616.838	476.333
619.884	486.333
622.929	514.333
625.973	549.667
629.013	617
632.055	703
635.096	927.667
638.136	1400.33
641.173	2560.33
644.211	3496.33
647.246	3546.33
650.282	2952.33
653.314	2069.67
656.348	1353.67
659.379	935
662.409	760.333
665.437	678.333
668.465	625.667
671.494	591.667
674.52	567
677.544	541
680.568	530.333
683.589	507
686.61	500.333
689.631	469
692.651	494.333
695.669	491.667
698.685	499.667
701.702	503.667
704.715	491.667
707.73	499.667
710.742	514.333
713.754	544.333
716.764	551.667
719.772	568.333
722.78	617
725.789	631.667
728.794	733.667
731.799	787.667
734.802	907.667
737.805	1056.33
740.807	1356.33
743.807	1827.67
746.805	2475.67
749.804	2911.67
752.801	2960.33
755.796	2625
758.792	2084.33
761.786	1555.67
764.778	1211
767.769	1029
770.76	905
773.749	829
776.737	773.667
779.725	721
782.711	693
785.696	673.667
788.68	635.667
791.662	634.333
794.644	619
797.625	631
800.605	613
803.582	624.333
806.559	637
809.536	614.333
812.51	593.667
815.485	602.333
818.457	603
821.43	579
824.4	603
827.369	595
830.339	589.667
833.306	584.333
836.272	569.667
839.237	585
842.201	564.333
845.164	563.667
848.126	548.333
851.087	560.333
854.047	583.667
857.007	577.667
859.963	585.667
862.92	585.667
865.876	565.667
868.83	583.667
871.784	563
874.735	561.667
877.686	563.667
880.637	561.667
883.586	569
886.533	565
889.48	587
892.425	591.667
895.37	579.667
898.313	582.333
901.256	578.333
904.198	587
907.138	583
910.078	581.667
913.015	591
915.953	573
918.888	579
921.824	571
924.757	575
927.691	585.667
930.622	573
933.552	577.667
936.481	565.667
939.411	572.333
942.338	578.333
945.264	576.333
948.19	591.667
951.114	597
954.035	589
956.958	599.667
959.879	617.667
962.8	629
965.717	597.667
968.636	632.333
971.552	638.333
974.468	635.667
977.382	644.333
980.295	644.333
983.209	661
986.12	677
989.03	681.667
991.939	648.333
994.847	678.333
997.754	661.667
1000.66	663
1003.57	688.333
1006.47	678.333
1009.37	661.667
1012.27	655
1015.17	653.667
1018.07	643.667
1020.97	639.667
1023.87	626.333
1026.77	645
1029.66	662.333
1032.56	657
1035.45	661.667
1038.34	665.667
1041.23	658.333
1044.12	663
1047.01	676.333
1049.9	667
1052.78	663.667
1055.67	687
1058.56	682.333
1061.44	680.333
1064.32	677.667
1067.2	706.879
1070.08	700.757
1072.96	717.302
1075.84	695.181
1078.72	667.726
1081.6	668.938
1084.47	687.483
1087.35	685.362
1090.22	672.573
1093.09	683.785
1095.96	698.997
1098.83	691.542
1101.7	698.754
1104.57	690.633
1107.43	697.845
1110.3	716.39
1113.16	708.935
1116.03	700.814
1118.89	706.025
1121.75	727.237
1124.61	723.116
1127.47	716.328
1130.33	704.873
1133.19	712.085
1136.04	707.297
1138.9	713.842
1141.75	679.72
1144.61	694.266
1147.46	694.144
1150.31	693.356
1153.16	709.234
1156.01	685.113
1158.86	701.658
1161.7	708.203
1164.55	706.748
1167.39	727.96
1170.24	710.506
1173.08	721.717
1175.92	716.263
1178.76	710.808
1181.6	710.686
1184.44	716.565
1187.28	721.777
1190.12	748.322
1192.95	745.534
1195.79	748.079
1198.62	757.291
1201.45	775.836
1204.28	755.048
1207.11	773.593
1209.94	772.138
1212.77	761.35
1215.6	754.562
1218.42	766.441
1221.25	788.319
1224.07	767.531
1226.9	768.076
1229.72	765.288
1232.54	762.5
1235.36	753.045
1238.18	742.924
1241	736.135
1243.81	775.347
1246.63	777.893
1249.44	767.104
1252.26	746.983
1255.07	742.195
1257.88	740.073
1260.69	714.618
1263.5	745.83
1266.31	690.376
1269.12	718.254
1271.92	738.799
1274.73	740.678
1277.53	745.89
1280.34	732.435
1283.14	755.647
1285.94	766.192
1288.74	752.737
1291.54	769.949
1294.34	763.161
1297.14	779.039
1299.93	789.585
1302.73	798.13
1305.52	798.675
1308.31	777.887
1311.11	789.765
1313.9	791.644
1316.69	774.189
1319.48	795.401
1322.26	818.613
1325.05	791.825
1327.84	809.036
1330.62	822.915
1333.41	843.46
1336.19	844.672
1338.97	882.551
1341.75	866.429
1344.53	911.641
1347.31	908.186
1350.09	910.065
1352.87	929.943
1355.64	923.155
1358.42	915.034
1361.19	905.579
1363.96	913.457
1366.74	902.669
1369.51	861.214
1372.28	879.76
1375.04	880.971
1377.81	846.183
1380.58	848.729
1383.34	782.607
1386.11	784.486
1388.87	809.697
1391.63	794.909
1394.4	787.455
1397.16	752.666
1399.92	767.212
1402.67	753.757
1405.43	739.635
1408.19	736.847
1410.95	738.059
1413.7	709.938
1416.45	709.816
1419.21	707.695
1421.96	718.24
1424.71	726.785
1427.46	700.664
1430.21	711.875
1432.95	703.754
1435.7	700.299
1438.45	683.511
1441.19	706.723
1443.93	693.935
1446.68	693.813
1449.42	691.025
1452.16	682.237
1454.9	670.115
1457.64	691.994
1460.37	711.873
1463.11	706.418
1465.85	684.963
1468.58	704.175
1471.31	705.387
1474.05	705.265
1476.78	706.477
1479.51	700.356
1482.24	706.901
1484.97	714.113
1487.69	744.658
1490.42	743.203
1493.15	753.748
1495.87	771.627
1498.59	806.172
1501.32	799.384
1504.04	815.929
1506.76	858.474
1509.48	835.686
1512.2	852.898
1514.91	846.11
1517.63	836.655
1520.35	835.2
1523.06	813.745
1525.77	772.957
1528.49	764.836
1531.2	768.048
1533.91	745.259
1536.62	745.138
1539.33	721.683
1542.04	707.562
1544.74	714.107
1547.45	693.319
1550.15	703.197
1552.85	698.409
1555.56	699.621
1558.26	699.5
1560.96	700.711
1563.66	681.257
1566.36	692.468
1569.06	683.014
1571.75	694.892
1574.45	688.771
1577.14	688.649
1579.84	669.861
1582.53	699.073
1585.22	677.618
1587.91	660.163
1590.6	670.709
1593.29	691.254
1595.98	699.799
1598.67	677.677
1601.35	672.889
1604.04	687.435
1606.72	694.646
1609.4	703.858
1612.09	700.403
1614.77	715.615
1617.45	696.827
1620.13	712.706
1622.8	711.918
1625.48	704.463
1628.16	732.341
1630.83	717.553
1633.51	744.765
1636.18	709.31
1638.85	721.189
1641.52	703.734
1644.19	702.946
1646.86	718.824
1649.53	722.703
1652.2	695.248
1654.86	699.127
1657.53	716.338
1660.2	705.55
1662.86	708.095
1665.52	697.307
1668.18	705.186
1670.84	689.064
1673.5	652.943
1676.16	667.488
1678.82	660.033
1681.47	681.912
1684.13	669.79
1686.79	665.002
1689.44	666.214
1692.09	652.759
1694.74	653.971
1697.39	645.85
1700.04	669.728
1702.69	652.94
1705.34	648.819
1707.99	642.697
1710.64	629.242
1713.28	637.121
1715.92	643.666
1718.57	644.211
1721.21	628.09
1723.85	626.635
1726.49	627.18
1729.13	650.392
1731.77	628.271
1734.41	628.149
1737.04	614.028
1739.68	626.573
1742.31	619.118
1744.94	631.663
1747.58	636.208
1750.21	628.754
1752.84	616.632
1755.47	620.511
1758.1	605.723
1760.73	607.601
1763.35	622.146
1765.98	602.691
1768.6	587.237
1771.23	591.115
1773.85	613.66
1776.47	590.206
1779.09	592.084
1781.71	598.629
1784.33	575.841
1786.95	572.386
1789.57	575.598
1792.18	576.81
1794.8	566.689
1797.41	568.567
1800.03	561.779
1802.64	578.324
1805.25	548.203
1807.86	546.748
1810.47	548.626
1813.08	567.838
1815.69	525.05
1818.29	536.262
1820.9	545.474
1823.5	534.686
1826.11	555.231
1828.71	553.109
1831.31	543.655
1833.91	543.533
1836.51	533.412
1839.11	537.29
1841.71	535.169
1844.31	533.047
1846.9	534.259
1849.5	533.471
1852.09	544.683
1854.69	546.561
1857.28	535.107
1859.87	526.985
1862.46	548.864
1865.05	534.076
1867.64	530.621
1870.23	533.833
1872.81	515.044
1875.4	528.923
1877.98	540.802
1880.57	531.347
1883.15	530.559
1885.73	515.77
1888.31	536.316
1890.89	527.527
1893.47	524.739
1896.05	528.618
1898.63	513.163
1901.2	513.708
1903.78	516.253
1906.35	516.132
1908.93	515.344
1911.5	528.556
1914.07	521.768
1916.64	522.979
1919.21	520.191
1921.78	515.403
1924.35	519.948
1926.92	523.827
1929.48	509.705
1932.05	509.584
1934.61	520.796
1937.17	516.674
1939.74	503.886
1942.3	507.765
1944.86	535.643
1947.42	504.188
1949.98	527.4
1952.53	517.279
1955.09	506.491
1957.65	508.369
1960.2	517.581
1962.76	510.126
1965.31	498.005
1967.86	504.55
1970.41	498.429
1972.96	519.64
1975.51	514.852
1978.06	505.397
1980.61	519.943
1983.15	519.154
1985.7	509.033
1988.24	510.245
1990.79	513.457
1993.33	522.002
1995.87	498.547
1998.41	499.759
2000.95	520.304
2003.49	514.183
2006.03	524.061
2008.57	503.94
2011.1	503.152
2013.64	513.697
2016.17	516.242
2018.71	506.121
2021.24	515.332
2023.77	512.544
2026.3	505.756
2028.83	502.301
2031.36	526.18
2033.89	499.392
2036.41	512.604
2038.94	491.815
2041.47	499.027
2043.99	508.239
2046.51	496.118
2049.04	497.33
2051.56	489.208
2054.08	495.753
2056.6	492.965
2059.12	499.51
2061.63	497.389
2064.15	493.267
2066.67	492.479
2069.18	501.024
2071.7	504.903
2074.21	498.115
2076.72	494.66
2079.23	502.539
2081.74	503.75
2084.25	509.629
2086.76	493.508
2089.27	498.719
2091.78	505.931
2094.28	483.143
2096.79	509.688
2099.29	512.233
2101.8	512.779
2104.3	499.991
2106.8	502.536
2109.3	501.081
2111.8	502.959
2114.3	495.505
2116.79	518.05
2119.29	494.595
2121.79	519.14
2124.28	511.019
2126.78	522.231
2129.27	512.109
2131.76	510.654
2134.25	507.866
2136.74	511.078
2139.23	495.623
2141.72	504.168
2144.21	504.714
2146.7	491.259
2149.18	495.804
2151.67	486.349
2154.15	488.228
2156.63	500.106
2159.12	485.985
2161.6	505.863
2164.08	495.742
2166.56	501.62
2169.04	492.166
2171.51	494.044
2173.99	495.256
2176.47	495.135
2178.94	490.346
2181.42	482.225
2183.89	490.77
2186.36	495.315
2188.83	481.194
2191.3	471.739
2193.77	491.618
2196.24	496.829
2198.71	498.041
2201.18	489.92
2203.64	497.798
2206.11	503.01
2208.57	492.889
2211.04	496.101
2213.5	491.312
2215.96	480.524
2218.42	501.07
2220.88	496.281
2223.34	502.827
2225.8	504.705
2228.25	507.917
2230.71	507.796
2233.17	513.674
2235.62	502.886
2238.07	505.431
2240.52	499.31
2242.98	502.521
2245.43	518.4
2247.88	508.279
2250.33	497.49
2252.77	512.702
2255.22	514.581
2257.67	517.126
2260.11	510.338
2262.56	519.55
2265	523.428
2267.44	523.973
2269.89	526.519
2272.33	519.064
2274.77	498.942
2277.21	520.821
2279.65	512.699
2282.08	517.911
2284.52	526.456
2286.96	512.335
2289.39	522.214
2291.82	515.425
2294.26	524.637
2296.69	509.182
2299.12	517.728
2301.55	522.273
2303.98	502.818
2306.41	509.363
2308.83	509.908
2311.26	537.787
2313.69	535.665
2316.11	522.877
2318.54	520.756
2320.96	516.634
2323.38	519.18
2325.8	516.391
2328.22	517.603
2330.65	530.148
2333.06	534.027
2335.48	531.906
2337.9	524.451
2340.31	524.329
2342.73	508.208
2345.14	523.42
2347.56	510.632
2349.97	525.177
2352.38	520.389
2354.79	519.6
2357.2	533.479
2359.61	530.024
2362.02	532.569
2364.43	539.781
2366.83	539.66
2369.24	520.872
2371.64	528.083
2374.05	532.629
2376.45	535.174
2378.85	532.386
2381.26	538.264
2383.65	538.143
2386.06	530.688
2388.45	533.9
2390.85	545.778
2393.25	532.99
2395.64	524.869
2398.04	542.747
2400.43	553.292
2402.83	532.504
2405.22	555.05
2407.61	548.261
2410	545.473
2412.39	541.352
2414.78	531.23
2417.17	563.776
2419.56	560.321
2421.94	535.533
2424.33	557.411
2426.71	541.29
2429.1	555.835
2431.48	550.38
2433.86	562.925
2436.24	558.804
2438.62	564.016
2441	558.561
2443.38	564.439
2445.76	560.985
2448.14	560.196
2450.51	562.742
2452.89	544.62
2455.26	547.832
2457.63	537.711
2460.01	550.922
2462.38	556.134
2464.75	559.346
2467.12	551.891
2469.49	563.103
2471.86	570.315
2474.22	555.527
2476.59	550.072
2478.96	573.284
2481.32	569.829
2483.69	569.708
2486.05	548.92
2488.41	556.798
2490.77	556.677
2493.13	550.555
2495.49	584.434
2497.85	558.979
2500.21	572.857
2502.56	569.403
2504.92	560.615
2507.28	559.826
2509.63	583.705
2511.99	576.917
2514.34	573.462
2516.69	570.674
2519.04	558.552
2521.39	592.431
2523.74	586.309
2526.09	589.521
2528.44	572.066
2530.78	591.945
2533.13	588.49
2535.47	580.369
2537.82	598.247
2540.16	582.792
2542.5	574.004
2544.85	590.549
2547.19	591.095
2549.53	586.973
2551.87	590.185
2554.2	600.064
2556.54	579.942
2558.88	585.821
2561.21	587.699
2563.55	596.079
2565.88	606.699
2568.21	587.318
2570.55	600.58
2572.88	593.565
2575.21	603.052
2577.54	595.61
2579.87	614.625
2582.19	590.802
2584.52	587.074
2586.85	600.625
2589.17	603.435
2591.5	614.121
2593.82	610.976
2596.15	626.532
2598.47	610.115
2600.79	611.901
2603.11	599.536
2605.43	617.127
2607.75	601.471
2610.07	614.704
2612.38	618.608
2614.7	601.081
2617.01	616.861
2619.33	611.765
2621.64	613.107
2623.96	617.674
2626.27	615.08
2628.58	626.215
2630.89	627.138
2633.2	621.418
2635.51	626.548
2637.81	618.967
2640.12	627.301
2642.43	619.943
2644.73	624.807
2647.04	642.29
2649.34	621.025
2651.64	634.569
2653.94	643.459
2656.25	624.01
2658.55	632.524
2660.85	641.576
2663.14	638.57
2665.44	631.481
2667.74	633.459
2670.03	637.43
2672.33	644.146
2674.62	650.842
2676.92	631.944
2679.21	640.988
2681.5	639.845
2683.79	648.686
2686.08	648.512
2688.37	657.082
2690.66	646.025
2692.95	658.94
2695.24	662.571
2697.52	723.728
2699.81	703.144
2702.09	673.467
2704.37	665.032
2706.66	665.672
2708.94	662.045
2711.22	658.04
2713.5	664.875
2715.78	661.063
2718.06	679.081
2720.33	681.299
2722.61	687.579
2724.89	676.437
2727.16	682.558
2729.44	690.678
2731.71	688.653
2733.98	693.473
2736.26	690.276
2738.53	687.195
2740.8	689.904
2743.07	687.043
2745.33	683.363
2747.6	697.994
2749.87	700.041
2752.14	706.257
2754.4	703.721
2756.66	691.714
2758.93	710.634
2761.19	716.279
2763.45	726.408
2765.72	720.284
2767.98	708.063
2770.23	717.547
2772.49	717.707
2774.75	729.705
2777.01	696.499
2779.26	739.217
2781.52	729.734
2783.77	740.676
2786.03	741.736
2788.28	768.637
2790.53	738.678
2792.78	738.589
2795.03	753.063
2797.28	749.432
2797.45	749.054
2799.74	753.597
2802.03	746.806
2804.32	745.348
2806.6	757.89
2808.89	759.099
2811.17	770.308
2813.46	756.184
2815.74	755.392
2818.02	769.268
2820.3	757.81
2822.58	797.686
2824.86	762.895
2827.14	760.77
2829.42	787.979
2831.7	768.521
2833.98	799.73
2836.25	790.273
2838.53	787.482
2840.8	792.024
2843.08	795.899
2845.35	794.442
2847.62	826.984
2849.9	820.193
2852.17	795.402
2854.44	825.277
2856.71	813.153
2858.98	809.695
2861.24	829.571
2863.51	821.446
2865.78	821.322
2868.04	833.198
2870.31	851.073
2872.57	854.949
2874.84	834.824
2877.1	840.7
2879.36	849.909
2881.62	843.784
2883.89	856.993
2886.15	844.869
2888.41	858.078
2890.66	868.62
2892.92	871.162
2895.18	882.371
2897.44	868.247
2899.69	884.789
2901.95	875.998
2904.2	884.54
2906.46	905.749
2908.71	887.625
2910.96	906.834
2913.21	909.376
2915.46	901.918
2917.71	926.46
2919.96	915.669
2922.21	912.212
2924.46	899.421
2926.71	930.629
2928.95	917.172
2931.2	917.047
2933.44	920.256
2935.68	944.132
2937.93	942.674
2940.17	935.216
2942.41	965.092
2944.65	970.967
2946.89	953.51
2949.13	936.719
2951.37	951.261
2953.61	980.47
2955.85	977.012
2958.09	985.554
2960.32	976.763
2962.56	989.305
2964.79	975.181
2967.03	982.39
2969.26	984.266
2971.49	1005.47
2973.72	997.35
2975.95	993.226
2978.18	1002.43
2980.41	1000.31
2982.64	988.852
2984.87	1014.06
2987.1	1014.6
2989.33	1017.81
2991.55	1009.69
2993.78	1021.56
2996	1026.11
2998.22	1025.31
3000.45	1053.19
3002.67	1053.07
3004.89	1023.61
3007.11	1052.82
3009.33	1046.69
3011.55	1052.57
3013.77	1045.11
3015.99	1041.65
3018.21	1055.53
3020.42	1089.4
3022.64	1067.95
3024.85	1066.49
3027.07	1073.7
3029.28	1076.91
3031.49	1090.78
3033.71	1090.66
3035.92	1082.53
3038.13	1115.08
3040.34	1098.28
3042.55	1119.49
3044.76	1113.37
3046.97	1093.24
3049.17	1107.79
3051.38	1121
3053.58	1114.2
3055.79	1130.08
3058	1138.62
3060.2	1139.16
3062.4	1153.04
3064.6	1134.92
3066.8	1156.79
3069.01	1153.33
3071.21	1154.54
3073.41	1153.75
3075.6	1176.96
3077.8	1164.17
3080	1188.04
3082.2	1184.59
3084.39	1169.8
3086.59	1197
3088.78	1162.88
3090.97	1180.09
3093.17	1182.63
3095.36	1199.17
3097.55	1173.05
3099.74	1194.93
3101.93	1214.13
3104.12	1213.34
3106.31	1229.22
3108.5	1220.43
3110.68	1238.97
3112.87	1236.18
3115.06	1240.05
3117.24	1235.26
3119.43	1261.81
3121.61	1221.01
3123.79	1242.89
3125.98	1256.1
3128.16	1276.64
3130.34	1289.85
3132.52	1275.06
3134.7	1276.93
3136.88	1272.14
3139.05	1289.35
3141.23	1283.89
3143.41	1296.44
3145.58	1293.65
3147.76	1319.52
3149.93	1319.4
3152.11	1305.94
3154.28	1321.81
3156.45	1314.36
3158.63	1291.57
3160.8	1335.44
3162.97	1302.65
3165.14	1334.53
3167.3	1339.73
3169.47	1345.61
3171.64	1355.49
3173.81	1343.36
3175.97	1375.24
3178.14	1355.78
3180.3	1378.32
3182.47	1366.86
3184.63	1378.07
3186.79	1389.28
3188.95	1419.82
3191.11	1379.7
3193.28	1364.91
3195.43	1422.12
3197.59	1370.66
3199.75	1422.54
3201.91	1415.08
3204.07	1439.62
3206.22	1432.83
3208.38	1428.04
3210.53	1409.25
3212.69	1432.46
3214.84	1422.33
3216.99	1485.54
3219.14	1456.75
3221.3	1473.96
3223.45	1472.5
3225.6	1487.04
3227.75	1518.25
3229.89	1473.46
3232.04	1471.34
3234.19	1521.88
3236.34	1509.75
3238.48	1490.96
3240.62	1514.17
3242.77	1493.38
3244.91	1502.59
3247.06	1549.13
3249.2	1532.34
3251.34	1531.55
3253.48	1568.09
3255.62	1574.63
3257.76	1573.18
3259.9	1568.39
3262.04	1550.26
3264.17	1586.14
3266.31	1586.68
3268.45	1571.89
3270.58	1596.43
3272.72	1575.64
3274.85	1588.85
3276.98	1598.06
3279.12	1617.27
3281.25	1633.14
3283.38	1628.35
3285.51	1648.23
3287.64	1636.77
3289.77	1659.31
3291.89	1640.52
3294.02	1690.39
3296.15	1667.6
3298.28	1674.15
3300.4	1673.35
3302.53	1671.23
3304.65	1720.44
3306.77	1716.31
3308.9	1710.19
3311.02	1718.07
3313.14	1693.27
3315.26	1720.48
3317.38	1743.69
3319.5	1745.57
3321.62	1700.78
3323.74	1741.99
3325.85	1735.19
3327.97	1773.74
3330.08	1758.95
3332.2	1803.49
3334.31	1773.36
3336.43	1771.91
3338.54	1773.11
3340.65	1832.32
3342.77	1827.53
3344.88	1781.41
3346.99	1840.62
3349.1	1813.16
3351.21	1832.37
3353.31	1830.91
3355.42	1874.79
3357.53	1840
3359.63	1889.2
3361.74	1837.08
3363.84	1860.29
3365.95	1881.5
3368.05	1866.04
3370.15	1851.25
3372.26	1883.12
3374.36	1887
3376.46	1910.21
3378.56	1922.08
3380.66	1915.29
3382.76	1930.5
3384.85	1929.04
3386.95	1921.59
3389.05	1939.46
3391.14	1950.67
3393.24	1967.21
3395.33	1973.09
3397.43	1995.63
3399.52	1950.84
3401.61	1973.38
3403.7	1977.92
3405.79	1972.47
3407.89	1993.68
3409.98	2015.55
3412.06	2004.09
3414.15	2025.97
3416.24	2025.18
3418.33	2069.72
3420.41	2043.6
3422.5	2061.47
3424.58	2076.68
3426.67	2079.22
3428.75	2064.43
3430.83	2088.97
3432.92	2073.52
3435	2115.39
3437.08	2074.6
3439.16	2103.81
3441.24	2075.69
3443.32	2154.89
3445.4	2170.77
3447.47	2133.31
3449.55	2167.19
3451.63	2143.73
3453.7	2154.27
3455.78	2166.15
3457.85	2206.02
3459.92	2203.9
3462	2154.44
3464.07	2198.98
3466.14	2217.53
3468.21	2214.73
3470.28	2229.28
3472.35	2262.49
3474.42	2232.36
3476.49	2209.57
3478.55	2230.78
3480.62	2283.99
3482.69	2290.53
3484.75	2264.41
3486.82	2275.61
3488.88	2282.82
3490.94	2276.7
3493.01	2339.24
3495.07	2298.45
3497.13	2332.99
3499.19	2317.54
3501.25	2325.41
3503.31	2332.62
3505.37	2327.16
3507.43	2325.04
3509.48	2388.25
3511.54	2366.79
3513.59	2370
3515.65	2412.54
3517.7	2355.75
3519.76	2396.96
3521.81	2407.5
3523.86	2406.71
3525.92	2391.92
3527.97	2413.79
3530.02	2439
3532.07	2471.54
3534.12	2437.42
3536.16	2451.3
3538.21	2476.5
3540.26	2509.71
3542.31	2464.92
3544.35	2474.13
3546.4	2524.67
3548.44	2515.88
3550.49	2516.43
3552.53	2530.3
3554.57	2516.18
3556.61	2537.39
3558.65	2526.59
3560.69	2547.8
3562.73	2572.34
3564.77	2555.55
3566.81	2588.76
3568.85	2631.97
3570.89	2619.18
3572.92	2603.06
3574.96	2637.6
3576.99	2670.81
3579.03	2645.35
3581.06	2694.56
3583.1	2711.1
3585.13	2696.98
3587.16	2721.52
3589.19	2687.39
3591.22	2749.27
3593.25	2765.15
3595.28	2771.69
3597.31	2761.56
3599.34	2814.11
3601.36	2818.65
3603.39	2816.52
3605.42	2873.07
3607.44	2880.27
3609.47	2878.82
3611.49	2888.69
3613.51	2894.57
3615.53	2918.44
3617.56	2932.99
3619.58	2962.86
3621.6	3006.07
3623.62	2955.95
3625.64	3001.16
3627.66	3049.7
3629.67	3030.24
3631.69	3050.78
3633.71	3042.66
3635.72	3007.87
3637.74	3067.08
3639.75	3068.28
3641.77	3096.16
3643.78	3102.7
3645.79	3063.91
3647.8	3098.45
3649.82	3101
3651.83	3118.87
3653.84	3123.41
3655.85	3101.96
3657.85	3108.5
3659.86	3143.71
3661.87	3140.92
3663.88	3101.46
3665.88	3133.33
3667.89	3129.88
3669.89	3164.42
3671.9	3128.29
3673.9	3143.5
3675.9	3110.71
3677.9	3178.59
3679.91	3099.13
3681.91	3183.67
3683.91	3190.88
3685.91	3177.42
3687.9	3222.63
3689.9	3233.84
3691.9	3219.05
3693.9	3184.92
3695.89	3232.8
3697.89	3252.68
3699.88	3250.55
3701.88	3310.43
3703.87	3293.64
3705.86	3306.84
3707.86	3328.05
3709.85	3321.26
3711.84	3329.81
3713.83	3379.01
3715.82	3370.89
3717.81	3436.1
3719.8	3407.97
3721.78	3441.18
3723.77	3481.06
3725.76	3459.6
3727.74	3488.14
3729.73	3484.02
3731.71	3450.56
3733.7	3497.1
3735.68	3522.31
3737.66	3540.19
3739.64	3490.06
3741.62	3505.94
3743.61	3568.48
3745.58	3529.69
3747.56	3582.9
3749.54	3600.11
3751.52	3558.65
3753.5	3607.19
3755.47	3599.73
3757.45	3621.61
3759.43	3658.82
3761.4	3670.69
3763.37	3667.9
3765.35	3682.45
3767.32	3666.99
3769.29	3708.2
3771.26	3678.07
3773.24	3714.61
3775.21	3718.49
3777.17	3705.7
3779.14	3690.24
3781.11	3742.78
3783.08	3786.66
3785.05	3698.54
3787.01	3765.08
3788.98	3779.62
3790.94	3797.5
3792.91	3854.04
3794.87	3804.58
3796.83	3885.12
3798.8	3888.33
3800.76	3898.87
3802.72	3913.42
3804.68	3967.29
3806.64	3983.83
3808.6	3926.38
3810.56	4014.25
3812.51	3999.46
3814.47	4002.67
3816.43	3967.21
3818.38	4021.09
3820.34	4098.3
3822.29	4038.84
3824.25	4123.38
3826.2	4151.26
3828.16	4108.46
3830.11	4191.67
3832.06	4196.22
3834.01	4168.76
3835.96	4223.97
3837.91	4203.84
3839.86	4234.38
3841.81	4252.26
3843.75	4276.8
3845.7	4259.34
3847.65	4275.89
3849.59	4277.1
3851.54	4284.97
3853.48	4326.18
3855.43	4309.39
3857.37	4339.27
3859.31	4366.47
3861.25	4372.35
3863.2	4349.56
3865.14	4346.77
3867.08	4395.98
3869.01	4375.19
3870.95	4407.06
3872.89	4370.27
3874.83	4393.48
3876.77	4372.69
3878.7	4407.23
3880.64	4459.11
3882.57	4380.98
3884.51	4406.86
3886.44	4424.73
3888.37	4419.27
3890.31	4354.48
3892.24	4399.03
3894.17	4448.9
3896.1	4413.44
3898.03	4455.32
3899.96	4440.53
3901.89	4449.74
3903.81	4430.95
3905.74	4418.82
3907.67	4422.7
3909.59	4457.91
3911.52	4443.78
3913.44	4438.32
3915.37	4380.2
3917.29	4473.41
3919.21	4452.62
3921.14	4498.49
3923.06	4471.7
3924.98	4456.91
3926.9	4458.12
3928.82	4498.66
3930.74	4483.87
3932.66	4431.75
3934.57	4514.29
3936.49	4538.16
3938.41	4524.04
3940.32	4513.92
3942.24	4516.46
3944.15	4533.67
3946.07	4526.88
3947.98	4556.75
3949.89	4602.63
3951.8	4567.17
3953.72	4651.71
3955.63	4706.92
3957.54	4612.8
3959.45	4647.34
3961.36	4645.88
3963.26	4684.42
3965.17	4713.63
3967.08	4701.51
3968.98	4735.38
3970.89	4769.26
3972.79	4775.13
3974.7	4793.01
3976.6	4790.88
3978.51	4802.09
3980.41	4830.64
3982.31	4837.18
3984.21	4857.05
3986.11	4883.6
3988.01	4897.47
3989.91	4916.01
3991.81	4867.89
3993.71	4884.43
3995.61	4915.64
3997.51	4934.18
3999.4	4907.39
