#Acq. time (s)=	10
#Accumulations=	4
#Range (cm-¹)=	60...4000
#Windows=	2
#Auto scanning=	Off
#Autofocus=	Off
#AutoExposure=	Off
#Spike filter=	Multiple accum.
#Delay time (s)=	0
#Binning=	1
#Readout mode=	Signal
#DeNoise=	Off
#ICS correction=	Off
#Dark correction=	Off
#Inst. Process=	Off
#Detector Gain=	Best Dynamic Range
#Detector ADC=	45 kHz       
#Detector temperature (°C)=	-60.1
#Instrument=	XploRA Plus
#Detector=	Syncerity OE
#Objective=	x50_VIS_LWD
#Grating=	1200 (750nm)
#Filter=	50%
#Laser=	532nm_Edge
#Slit (µm)=	100 
#Hole (µm)=	300 
#Temperature=	0
#StageXY=	75x50mm Scan+
#StageZ=	Z motor
#X (µm)=	0
#Y (µm)=	0
#Z (µm)=	-0.2
#Full time(mm:ss)=	1:30
#Project=	
#Sample=	
#Site=	
#Title=	cubic_zirconia_16_10_54_2026_04_01_4_10 s_532nm_Edge_1200 (750nm)_x50_VIS_LWD_100 µm_300 µm_50%
#Remark=	
#Date=	01.04.2026 16:11
#Acquired=	01.04.2026 16:11:09
#AxisType[0]=Intens
#AxisUnit[0]=Cnt
#AxisType[1]=Spectr
#AxisUnit[1]=1/cm
62.8738	6467
66.1253	6929
69.3736	7313.67
72.6208	7594.33
75.869	7711
79.1139	7817.67
82.3577	7887.67
85.6003	7993
88.844	7933.67
92.0844	7985
95.3237	8026.33
98.5619	8041.67
101.799	8039
105.035	8100.33
108.27	8164.33
111.503	8262.33
114.736	8377
117.967	8433.67
121.196	8578.33
124.425	8707.67
127.653	8902.33
130.88	9031
134.104	9153
137.328	9376.33
140.552	9530.33
143.773	9723
146.994	9839.67
150.212	10046.3
153.431	10238.3
156.647	10341.7
159.862	10316.3
163.078	10310.3
166.291	10325.7
169.502	10237
172.713	10181.7
175.924	10115.7
179.132	9983
182.339	9953.67
185.545	9911.67
188.75	9969
191.954	9975.67
195.157	9945.67
198.358	9968.33
201.559	9956.33
204.758	9975.67
207.954	10121.7
211.152	10072.3
214.348	10175.7
217.543	10257.7
220.734	10349
223.927	10375
227.117	10514.3
230.307	10628.3
233.495	10662.3
236.683	10725
239.868	10859
243.055	10830.3
246.238	10950.3
249.42	10975
252.603	11071
255.782	11116.3
258.961	11139
262.139	11214.3
265.315	11295.7
268.49	11275.7
271.665	11397
274.838	11429
278.01	11477
281.181	11611
284.351	11791
287.52	11867.7
290.688	12145.7
293.852	12319
297.018	12703.7
300.183	13149.7
303.344	13604.3
306.506	14121.7
309.665	14609.7
312.826	15028.3
315.983	15161.7
319.141	15003
322.296	14816.3
325.45	14303.7
328.604	13785.7
331.756	13264.3
334.907	12856.3
338.056	12482.3
341.205	12228.3
344.352	12262.3
347.498	12341
350.643	12516.3
353.788	12761
356.931	13027
360.073	13386.3
363.214	13797
366.353	14168.3
369.49	14681.7
372.628	15021
375.765	15255
378.898	15455
382.033	15475.7
385.164	15391
388.296	15406.3
391.426	15201
394.556	15145
397.683	14971.7
400.809	15047.7
403.936	15120.3
407.06	15202.3
410.183	15312.3
413.305	15353
416.426	15575.7
419.545	15676.3
422.664	15840.3
425.781	15985.7
428.898	15969.7
432.013	16002.3
435.128	15959
438.239	15851
441.351	15813.7
444.463	15798.3
447.571	15820.3
450.68	15867.7
453.786	15790.3
456.893	15870.3
459.997	15953
463.102	16029.7
466.204	16039.7
469.305	16161
472.406	16113
475.505	16137.7
478.603	16037
481.699	15781.7
484.795	15576.3
487.889	15343
490.983	15195
494.075	15197.7
497.166	15282.3
500.257	15107.7
503.346	15213.7
506.434	15277
509.519	15189.7
512.606	15121.7
515.691	15105.7
518.773	15139.7
521.856	15031.7
524.936	15010.3
528.017	15085
531.094	15181.7
534.171	15207.7
537.247	15289
540.324	15421.7
543.398	15617.7
546.47	15576.3
549.542	15825.7
552.613	15782.3
555.682	15948.3
558.751	16001
561.818	15915
564.885	15890.3
567.95	15898.3
571.013	15981
574.076	15823
577.138	15830.3
580.198	15819
583.258	15697
586.315	15524.3
589.374	15604.3
592.429	15551
595.485	15465.7
598.538	15429.7
601.59	15306.3
604.643	15204.3
607.693	15105
610.743	15012.3
613.791	14667
616.838	14388.3
619.884	13779
622.929	13263
625.973	12547.7
629.013	11745
632.055	10853.7
635.096	10053
638.136	9303.67
641.173	8761
644.211	8203.67
647.246	7831.67
650.282	7507.67
653.314	7259.67
656.348	7081
659.379	6901.67
662.409	6781
665.437	6815
668.465	6817.67
671.494	6735
674.52	6694.33
677.544	6680.33
680.568	6640.33
683.589	6613.67
686.61	6567.67
689.631	6570.33
692.651	6524.33
695.669	6487.67
698.685	6463
701.702	6433
704.715	6334.33
707.73	6346.33
710.742	6259
713.754	6107
716.764	6037.67
719.772	6019.67
722.78	5885.67
725.789	5799.67
728.794	5703.67
731.799	5629
734.802	5531.67
737.805	5488.33
740.807	5381
743.807	5396.33
746.805	5300.33
749.804	5279.67
752.801	5239.67
755.796	5187
758.792	5175.67
761.786	5185
764.778	5180.33
767.769	5095
770.76	5151
773.749	5132.33
776.737	5093
779.725	5118.33
782.711	5158.33
785.696	5163.67
788.68	5183.67
791.662	5165
794.644	5154.33
797.625	5145.67
800.605	5197.67
803.582	5174.33
806.559	5235
809.536	5241.67
812.51	5296.33
815.485	5277
818.457	5319.67
821.43	5368.33
824.4	5402.33
827.369	5398.33
830.339	5517.67
833.306	5552.33
836.272	5629.67
839.237	5659
842.201	5695.67
845.164	5760.33
848.126	5845
851.087	5914.33
854.047	5883.67
857.007	6026.33
859.963	6038.33
862.92	6131.67
865.876	6215
868.83	6229
871.784	6350.33
874.735	6355.67
877.686	6437
880.637	6529.67
883.586	6545
886.533	6594.33
889.48	6730.33
892.425	6780.33
895.37	6820.33
898.313	6906.33
901.256	6987.67
904.198	7012.33
907.138	7044.33
910.078	7147
913.015	7113.67
915.953	7143.67
918.888	7236.33
921.824	7257
924.757	7315.67
927.691	7325
930.622	7299
933.552	7399.67
936.481	7417
939.411	7488.33
942.338	7487
945.264	7448.33
948.19	7492.33
951.114	7526.33
954.035	7519.67
956.958	7579.67
959.879	7531
962.8	7625
965.717	7589
968.636	7653
971.552	7615.67
974.468	7672.33
977.382	7647
980.295	7607.67
983.209	7631
986.12	7625
989.03	7581.67
991.939	7545
994.847	7526.33
997.754	7455.67
1000.66	7387.67
1003.57	7336.33
1006.47	7223.67
1009.37	7181
1012.27	7119.67
1015.17	6962.33
1018.07	6899
1020.97	6777.67
1023.87	6709
1026.77	6581.67
1029.66	6511
1032.56	6436.33
1035.45	6298.33
1038.34	6267
1041.23	6073
1044.12	6023.67
1047.01	5892.33
1049.9	5816.33
1052.78	5725
1055.67	5613
1058.56	5536.33
1061.44	5472.33
1064.32	5299
1067.2	5291.71
1070.08	5203.75
1072.96	5050.46
1075.84	4968.51
1078.72	4907.22
1081.6	4779.93
1084.47	4779.97
1087.35	4610.68
1090.22	4577.39
1093.09	4479.44
1095.96	4385.48
1098.83	4310.19
1101.7	4216.9
1104.57	4117.61
1107.43	4030.32
1110.3	3971.7
1113.16	3917.74
1116.03	3788.45
1118.89	3735.83
1121.75	3677.2
1124.61	3569.91
1127.47	3565.29
1130.33	3498.67
1133.19	3360.05
1136.04	3345.42
1138.9	3283.47
1141.75	3216.84
1144.61	3134.22
1147.46	3069.6
1150.31	3043.64
1153.16	3001.02
1156.01	2919.73
1158.86	2838.44
1161.7	2817.81
1164.55	2817.19
1167.39	2775.9
1170.24	2742.61
1173.08	2701.99
1175.92	2678.7
1178.76	2590.74
1181.6	2603.45
1184.44	2559.5
1187.28	2580.21
1190.12	2520.92
1192.95	2547.63
1195.79	2506.34
1198.62	2473.71
1201.45	2420.42
1204.28	2455.8
1207.11	2439.18
1209.94	2420.55
1212.77	2425.26
1215.6	2414.64
1218.42	2346.69
1221.25	2356.73
1224.07	2318.11
1226.9	2294.15
1229.72	2308.86
1232.54	2278.24
1235.36	2310.28
1238.18	2272.99
1241	2268.37
1243.81	2264.41
1246.63	2205.12
1249.44	2224.5
1252.26	2233.87
1255.07	2176.58
1257.88	2175.96
1260.69	2150.67
1263.5	2180.72
1266.31	2170.76
1269.12	2158.14
1271.92	2164.85
1274.73	2163.56
1277.53	2193.6
1280.34	2134.98
1283.14	2132.35
1285.94	2184.4
1288.74	2156.44
1291.54	2165.15
1294.34	2138.53
1297.14	2142.57
1299.93	2152.61
1302.73	2180.66
1305.52	2149.37
1308.31	2146.75
1311.11	2143.46
1313.9	2130.83
1316.69	2129.54
1319.48	2101.59
1322.26	2138.96
1325.05	2153.01
1327.84	2113.72
1330.62	2125.09
1333.41	2107.8
1336.19	2085.85
1338.97	2080.56
1341.75	2096.6
1344.53	2067.98
1347.31	2053.36
1350.09	2060.73
1352.87	2036.11
1355.64	2048.82
1358.42	2034.2
1361.19	2020.24
1363.96	2020.95
1366.74	2014.99
1369.51	2004.37
1372.28	1993.75
1375.04	1983.79
1377.81	1997.83
1380.58	1989.21
1383.34	1981.92
1386.11	1958.63
1388.87	2000.01
1391.63	1940.05
1394.4	1929.43
1397.16	1967.47
1399.92	1956.85
1402.67	1942.89
1405.43	1948.27
1408.19	1941.65
1410.95	1906.36
1413.7	1970.4
1416.45	1954.44
1419.21	1937.82
1421.96	1951.86
1424.71	1957.24
1427.46	1905.95
1430.21	1910.66
1432.95	1936.71
1435.7	1895.42
1438.45	1929.46
1441.19	1912.17
1443.93	1880.21
1446.68	1886.26
1449.42	1880.3
1452.16	1859.68
1454.9	1877.05
1457.64	1835.76
1460.37	1811.81
1463.11	1811.18
1465.85	1839.23
1468.58	1809.27
1471.31	1811.31
1474.05	1788.03
1476.78	1776.74
1479.51	1730.11
1482.24	1750.16
1484.97	1728.87
1487.69	1748.91
1490.42	1746.95
1493.15	1725.66
1495.87	1737.71
1498.59	1721.08
1501.32	1709.79
1504.04	1737.84
1506.76	1707.21
1509.48	1717.26
1512.2	1759.97
1514.91	1730.01
1517.63	1732.06
1520.35	1705.43
1523.06	1689.48
1525.77	1700.19
1528.49	1703.56
1531.2	1706.94
1533.91	1670.98
1536.62	1669.69
1539.33	1668.4
1542.04	1678.45
1544.74	1692.49
1547.45	1664.53
1550.15	1689.91
1552.85	1690.62
1555.56	1669.33
1558.26	1678.04
1560.96	1657.42
1563.66	1676.13
1566.36	1658.84
1569.06	1628.22
1571.75	1638.26
1574.45	1653.64
1577.14	1635.01
1579.84	1656.39
1582.53	1652.43
1585.22	1638.48
1587.91	1639.19
1590.6	1651.23
1593.29	1637.94
1595.98	1636.65
1598.67	1644.7
1601.35	1635.41
1604.04	1634.78
1606.72	1594.16
1609.4	1622.2
1612.09	1629.58
1614.77	1635.62
1617.45	1623
1620.13	1625.71
1622.8	1601.75
1625.48	1603.13
1628.16	1629.17
1630.83	1620.55
1633.51	1647.93
1636.18	1652.64
1638.85	1626.02
1641.52	1630.06
1644.19	1625.44
1646.86	1648.81
1649.53	1632.86
1652.2	1632.9
1654.86	1619.61
1657.53	1631.65
1660.2	1656.36
1662.86	1646.41
1665.52	1615.78
1668.18	1643.83
1670.84	1635.2
1673.5	1591.91
1676.16	1615.96
1678.82	1589.34
1681.47	1612.05
1684.13	1607.42
1686.79	1567.47
1689.44	1554.84
1692.09	1577.55
1694.74	1595.6
1697.39	1618.31
1700.04	1581.02
1702.69	1612.39
1705.34	1609.1
1707.99	1606.48
1710.64	1601.86
1713.28	1599.23
1715.92	1581.94
1718.57	1635.99
1721.21	1635.37
1723.85	1600.08
1726.49	1580.12
1729.13	1624.16
1731.77	1577.54
1734.41	1574.92
1737.04	1571.63
1739.68	1583
1742.31	1601.05
1744.94	1593.76
1747.58	1590.47
1750.21	1592.51
1752.84	1583.22
1755.47	1613.93
1758.1	1595.97
1760.73	1609.35
1763.35	1599.4
1765.98	1596.77
1768.6	1639.48
1771.23	1584.86
1773.85	1600.24
1776.47	1576.95
1779.09	1566.32
1781.71	1603.03
1784.33	1585.74
1786.95	1578.45
1789.57	1605.16
1792.18	1599.87
1794.8	1573.92
1797.41	1583.96
1800.03	1539.34
1802.64	1567.38
1805.25	1601.43
1807.86	1594.8
1810.47	1577.51
1813.08	1588.22
1815.69	1578.27
1818.29	1574.98
1820.9	1566.35
1823.5	1564.4
1826.11	1589.77
1828.71	1584.48
1831.31	1575.86
1833.91	1607.24
1836.51	1592.61
1839.11	1587.99
1841.71	1586.7
1844.31	1586.75
1846.9	1585.46
1849.5	1586.83
1852.09	1614.21
1854.69	1602.25
1857.28	1604.96
1859.87	1607.01
1862.46	1617.05
1865.05	1610.43
1867.64	1605.8
1870.23	1613.85
1872.81	1613.89
1875.4	1617.27
1877.98	1589.98
1880.57	1621.36
1883.15	1635.4
1885.73	1642.11
1888.31	1600.15
1890.89	1601.53
1893.47	1632.91
1896.05	1586.95
1898.63	1601.66
1901.2	1595.04
1903.78	1615.08
1906.35	1603.79
1908.93	1631.83
1911.5	1618.54
1914.07	1596.59
1916.64	1602.63
1919.21	1593.34
1921.78	1602.05
1924.35	1590.76
1926.92	1606.81
1929.48	1591.52
1932.05	1615.56
1934.61	1599.6
1937.17	1596.31
1939.74	1613.02
1942.3	1629.73
1944.86	1629.78
1947.42	1620.49
1949.98	1621.2
1952.53	1614.57
1955.09	1618.62
1957.65	1607.33
1960.2	1634.71
1962.76	1665.42
1965.31	1664.79
1967.86	1632.84
1970.41	1660.21
1972.96	1661.59
1975.51	1639.63
1978.06	1655.68
1980.61	1679.72
1983.15	1647.1
1985.7	1674.47
1988.24	1671.85
1990.79	1649.89
1993.33	1702.6
1995.87	1659.98
1998.41	1671.36
2000.95	1650.07
2003.49	1678.11
2006.03	1679.49
2008.57	1654.87
2011.1	1664.24
2013.64	1662.95
2016.17	1653
2018.71	1659.04
2021.24	1682.42
2023.77	1656.46
2026.3	1657.84
2028.83	1689.88
2031.36	1668.59
2033.89	1667.3
2036.41	1672.68
2038.94	1684.72
2041.47	1683.43
2043.99	1674.81
2046.51	1658.85
2049.04	1652.9
2051.56	1672.94
2054.08	1675.65
2056.6	1681.03
2059.12	1689.74
2061.63	1683.78
2064.15	1675.16
2066.67	1665.2
2069.18	1689.91
2071.7	1715.96
2074.21	1708.67
2076.72	1713.38
2079.23	1725.42
2081.74	1712.13
2084.25	1695.51
2086.76	1686.88
2089.27	1774.26
2091.78	1712.3
2094.28	1735.01
2096.79	1742.39
2099.29	1752.43
2101.8	1737.81
2104.3	1738.52
2106.8	1801.23
2109.3	1753.94
2111.8	1759.32
2114.3	1767.36
2116.79	1788.74
2119.29	1782.12
2121.79	1774.83
2124.28	1812.87
2126.78	1807.58
2129.27	1782.96
2131.76	1785.67
2134.25	1806.38
2136.74	1831.09
2139.23	1815.8
2141.72	1790.51
2144.21	1765.88
2146.7	1810.59
2149.18	1774.64
2151.67	1794.68
2154.15	1767.39
2156.63	1765.44
2159.12	1764.15
2161.6	1752.19
2164.08	1786.23
2166.56	1783.61
2169.04	1766.32
2171.51	1776.36
2173.99	1775.74
2176.47	1780.45
2178.94	1791.16
2181.42	1805.2
2183.89	1796.58
2186.36	1800.63
2188.83	1821.34
2191.3	1819.38
2193.77	1823.42
2196.24	1822.13
2198.71	1802.18
2201.18	1840.89
2203.64	1801.6
2206.11	1864.31
2208.57	1886.35
2211.04	1855.06
2213.5	1866.44
2215.96	1885.15
2218.42	1873.86
2220.88	1933.9
2223.34	1871.28
2225.8	1905.99
2228.25	1885.37
2230.71	1911.41
2233.17	1924.79
2235.62	1980.16
2238.07	1965.54
2240.52	1974.92
2242.98	1974.96
2245.43	1971
2247.88	1999.05
2250.33	1987.76
2252.77	2007.8
2255.22	1997.18
2257.67	2015.89
2260.11	2015.93
2262.56	2012.64
2265	2062.69
2267.44	2026.73
2269.89	2038.77
2272.33	1976.15
2274.77	2012.86
2277.21	2068.9
2279.65	2052.95
2282.08	2046.32
2284.52	2007.03
2286.96	2038.41
2289.39	2047.12
2291.82	2026.5
2294.26	2031.21
2296.69	2044.58
2299.12	2041.96
2301.55	2042.01
2303.98	2045.38
2306.41	2058.76
2308.83	2022.8
2311.26	2050.18
2313.69	2021.56
2316.11	1999.6
2318.54	2036.98
2320.96	2029.69
2323.38	2018.4
2325.8	2023.77
2328.22	2039.15
2330.65	2082.53
2333.06	2091.91
2335.48	2063.95
2337.9	2066.66
2340.31	2050.7
2342.73	2038.08
2345.14	2026.12
2347.56	2012.83
2349.97	2031.54
2352.38	2058.25
2354.79	2073.63
2357.2	2056.34
2359.61	2038.38
2362.02	2077.09
2364.43	2059.8
2366.83	2084.51
2369.24	2077.22
2371.64	2097.94
2374.05	2091.98
2376.45	2091.36
2378.85	2060.73
2381.26	2086.78
2383.65	2106.15
2386.06	2112.86
2388.45	2102.91
2390.85	2107.62
2393.25	2082.99
2395.64	2093.04
2398.04	2131.08
2400.43	2105.12
2402.83	2099.83
2405.22	2093.21
2407.61	2086.59
2410	2151.3
2412.39	2145.34
2414.78	2120.72
2417.17	2108.76
2419.56	2166.81
2421.94	2121.52
2424.33	2168.89
2426.71	2092.27
2429.1	2105.65
2431.48	2151.02
2433.86	2136.4
2436.24	2129.78
2438.62	2128.49
2441	2127.2
2443.38	2137.91
2445.76	2129.29
2448.14	2105.33
2450.51	2098.04
2452.89	2048.75
2455.26	2151.46
2457.63	2128.84
2460.01	2095.55
2462.38	2099.59
2464.75	2094.97
2467.12	2152.34
2469.49	2139.05
2471.86	2133.1
2474.22	2134.47
2476.59	2119.85
2478.96	2115.9
2481.32	2117.27
2483.69	2114.65
2486.05	2117.36
2488.41	2142.07
2490.77	2138.11
2493.13	2120.82
2495.49	2122.2
2497.85	2134.91
2500.21	2138.29
2502.56	2132.33
2504.92	2123.71
2507.28	2123.75
2509.63	2142.46
2511.99	2115.17
2514.34	2142.55
2516.69	2133.26
2519.04	2133.3
2521.39	2114.68
2523.74	2147.39
2526.09	2092.77
2528.44	2114.81
2530.78	2115.52
2533.13	2116.9
2535.47	2138.27
2537.82	2128.32
2540.16	2111.69
2542.5	2129.74
2544.85	2158.45
2547.19	2131.82
2549.53	2154.53
2551.87	2131.25
2554.2	2151.96
2556.54	2132.67
2558.88	2142.71
2561.21	2141.42
2563.55	2119.45
2565.88	2148.52
2568.21	2092.03
2570.55	2140.9
2572.88	2117.73
2575.21	2111.71
2577.54	2121.69
2579.87	2130.68
2582.19	2129.37
2584.52	2116.96
2586.85	2107.83
2589.17	2124.02
2591.5	2106.67
2593.82	2108.14
2596.15	2137.72
2598.47	2114.09
2600.79	2127.76
2603.11	2136.43
2605.43	2111.26
2607.75	2108.68
2610.07	2108.27
2612.38	2105.56
2614.7	2102.76
2617.01	2103.54
2619.33	2116.35
2621.64	2087.82
2623.96	2090.66
2626.27	2102.31
2628.58	2116.87
2630.89	2084.95
2633.2	2105.09
2635.51	2094.51
2637.81	2058.94
2640.12	2097.63
2642.43	2062.45
2644.73	2070.03
2647.04	2086.66
2649.34	2081.43
2651.64	2084.77
2653.94	2064.63
2656.25	2073.32
2658.55	2061.19
2660.85	2059.52
2663.14	2067.74
2665.44	2056.04
2667.74	2058.76
2670.03	2054.67
2672.33	2048.74
2674.62	2042.39
2676.92	2024.39
2679.21	2073.04
2681.5	2070.71
2683.79	2062.45
2686.08	2041.36
2688.37	2035.96
2690.66	2034.97
2692.95	2053.41
2695.24	2039.7
2697.52	2058.03
2699.81	2051.69
2702.09	2049.7
2704.37	2045.58
2706.66	2072.13
2708.94	2054.15
2711.22	2035.47
2713.5	2064.4
2715.78	2045.64
2718.06	2031.17
2720.33	2039.34
2722.61	2046.94
2724.89	2025.85
2727.16	2022.65
2729.44	2057.52
2731.71	2047.34
2733.98	2037.75
2736.26	2045.67
2738.53	2031.23
2740.8	2050.3
2743.07	2066.5
2745.33	2030.28
2747.6	2013.23
2749.87	1999.94
2752.14	2023.84
2754.4	2042.19
2756.66	2047.76
2758.93	2020.97
2761.19	2022.92
2763.45	2019.34
2765.72	2005.25
2767.98	2019.44
2770.23	2002.6
2772.49	2010.9
2774.75	2021.19
2777.01	1991.9
2779.26	2006.61
2781.52	2027.56
2783.77	1990.71
2786.03	2001.04
2788.28	1995.43
2790.53	1986.35
2792.78	2023.81
2795.03	1979.46
2797.28	1999.94
2797.45	2000.93
2799.74	2015.57
2802.03	1996.2
2804.32	2020.84
2806.6	1984.81
2808.89	1986.77
2811.17	2012.07
2813.46	2003.38
2815.74	1985.34
2818.02	1989.98
2820.3	1992.61
2822.58	1987.91
2824.86	2018.55
2827.14	1950.51
2829.42	1998.48
2831.7	2007.12
2833.98	1995.75
2836.25	1999.72
2838.53	2009.69
2840.8	2033.65
2843.08	2022.29
2845.35	2055.59
2847.62	2086.22
2849.9	2142.19
2852.17	2158.16
2854.44	2148.13
2856.71	2173.43
2858.98	2162.73
2861.24	2163.36
2863.51	2155.33
2865.78	2159.3
2868.04	2141.93
2870.31	2153.23
2872.57	2120.54
2874.84	2157.84
2877.1	2134.47
2879.36	2179.1
2881.62	2201.07
2883.89	2243.04
2886.15	2243.67
2888.41	2236.98
2890.66	2213.61
2892.92	2238.24
2895.18	2230.21
2897.44	2232.18
2899.69	2177.48
2901.95	2154.78
2904.2	2170.08
2906.46	2170.72
2908.71	2184.02
2910.96	2178.65
2913.21	2186.62
2915.46	2155.92
2917.71	2159.22
2919.96	2174.52
2922.21	2175.16
2924.46	2167.13
2926.71	2205.09
2928.95	2175.73
2931.2	2173.69
2933.44	2215
2935.68	2188.96
2937.93	2192.26
2940.17	2194.9
2942.41	2192.87
2944.65	2215.5
2946.89	2172.8
2949.13	2173.44
2951.37	2150.74
2953.61	2156.71
2955.85	2108.67
2958.09	2108.64
2960.32	2129.28
2962.56	2114.58
2964.79	2095.88
2967.03	2092.51
2969.26	2122.48
2971.49	2106.45
2973.72	2109.08
2975.95	2083.05
2978.18	2051.02
2980.41	2078.98
2982.64	2063.62
2984.87	2086.92
2987.1	2073.55
2989.33	2059.52
2991.55	2049.49
2993.78	2101.46
2996	2074.76
2998.22	2054.73
3000.45	2049.36
3002.67	2080.66
3004.89	2005.96
3007.11	2052.6
3009.33	2059.9
3011.55	2016.53
3013.77	2013.17
3015.99	2027.13
3018.21	2024.43
3020.42	2009.07
3022.64	2033.7
3024.85	2017
3027.07	2020.97
3029.28	2006.94
3031.49	2014.91
3033.71	2024.88
3035.92	1996.18
3038.13	1995.48
3040.34	2008.78
3042.55	2016.75
3044.76	2027.38
3046.97	2021.35
3049.17	2007.32
3051.38	2045.95
3053.58	2013.92
3055.79	2015.89
3058	2015.19
3060.2	2021.15
3062.4	1998.46
3064.6	1997.09
3066.8	2036.39
3069.01	1990.36
3071.21	2008.99
3073.41	2012.96
3075.6	1986.93
3077.8	2008.23
3080	2002.86
3082.2	1975.5
3084.39	1996.8
3086.59	2007.43
3088.78	1978.07
3090.97	2012.04
3093.17	2025.34
3095.36	2013.97
3097.55	1959.94
3099.74	2005.91
3101.93	2001.21
3104.12	1959.17
3106.31	2013.81
3108.5	1983.11
3110.68	1962.41
3112.87	1995.71
3115.06	2006.35
3117.24	2020.31
3119.43	1977.61
3121.61	1966.25
3123.79	1968.22
3125.98	1988.85
3128.16	1994.82
3130.34	2006.79
3132.52	1991.42
3134.7	1975.39
3136.88	1988.69
3139.05	1994.66
3141.23	1997.29
3143.41	1994.59
3145.58	1985.89
3147.76	1971.19
3149.93	1982.5
3152.11	2007.8
3154.28	2024.43
3156.45	2001.73
3158.63	1979.7
3160.8	1988.33
3162.97	1978.3
3165.14	1966.27
3167.3	1992.9
3169.47	1982.2
3171.64	1967.51
3173.81	1992.14
3175.97	1968.11
3178.14	2029.41
3180.3	1962.71
3182.47	1996.01
3184.63	1980.65
3186.79	1978.61
3188.95	1989.25
3191.11	2015.22
3193.28	1961.85
3195.43	1991.82
3197.59	1967.12
3199.75	1991.09
3201.91	1970.39
3204.07	1971.02
3206.22	2022.99
3208.38	2014.96
3210.53	2036.92
3212.69	2018.89
3214.84	1982.19
3216.99	1995.49
3219.14	2003.46
3221.3	2010.76
3223.45	1985.4
3225.6	1992.03
3227.75	1998.67
3229.89	1995.97
3232.04	2019.27
3234.19	2023.24
3236.34	2015.87
3238.48	1981.84
3240.62	2007.81
3242.77	1982.44
3244.91	1975.74
3247.06	2019.04
3249.2	1993.68
3251.34	1981.64
3253.48	2016.28
3255.62	2052.25
3257.76	2026.88
3259.9	2065.51
3262.04	2020.82
3264.17	2045.45
3266.31	2049.42
3268.45	2047.39
3270.58	2044.02
3272.72	2081.99
3274.85	2025.95
3276.98	2069.26
3279.12	2065.89
3281.25	2057.86
3283.38	2031.83
3285.51	2041.13
3287.64	2077.76
3289.77	2084.4
3291.89	2086.36
3294.02	2091.66
3296.15	2090.3
3298.28	2073.6
3300.4	2105.57
3302.53	2092.87
3304.65	2114.17
3306.77	2092.8
3308.9	2112.1
3311.02	2087.41
3313.14	2135.37
3315.26	2122.67
3317.38	2124.64
3319.5	2129.94
3321.62	2096.58
3323.74	2133.21
3325.85	2100.51
3327.97	2125.81
3330.08	2125.11
3332.2	2129.75
3334.31	2128.38
3336.43	2121.02
3338.54	2111.65
3340.65	2131.62
3342.77	2102.92
3344.88	2142.22
3346.99	2114.86
3349.1	2124.82
3351.21	2124.13
3353.31	2099.43
3355.42	2132.73
3357.53	2160.69
3359.63	2134
3361.74	2129.3
3363.84	2121.26
3365.95	2120.57
3368.05	2141.87
3370.15	2114.5
3372.26	2129.8
3374.36	2141.77
3376.46	2115.07
3378.56	2113.04
3380.66	2138.34
3382.76	2141.64
3384.85	2103.61
3386.95	2150.24
3389.05	2111.54
3391.14	2132.18
3393.24	2112.15
3395.33	2117.45
3397.43	2134.75
3399.52	2128.05
3401.61	2123.35
3403.7	2136.65
3405.79	2153.95
3407.89	2131.25
3409.98	2133.89
3412.06	2168.52
3414.15	2163.82
3416.24	2175.12
3418.33	2149.09
3420.41	2162.39
3422.5	2167.69
3424.58	2171.66
3426.67	2176.96
3428.75	2180.93
3430.83	2186.9
3432.92	2196.86
3435	2212.83
3437.08	2186.8
3439.16	2200.77
3441.24	2200.74
3443.32	2228.7
3445.4	2216
3447.47	2192.64
3449.55	2199.94
3451.63	2184.57
3453.7	2227.88
3455.78	2223.84
3457.85	2178.48
3459.92	2175.11
3462	2247.08
3464.07	2179.05
3466.14	2199.68
3468.21	2238.32
3470.28	2268.95
3472.35	2245.58
3474.42	2220.22
3476.49	2271.52
3478.55	2284.15
3480.62	2275.46
3482.69	2316.09
3484.75	2334.06
3486.82	2338.69
3488.88	2391.33
3490.94	2395.96
3493.01	2400.59
3495.07	2366.56
3497.13	2379.2
3499.19	2401.16
3501.25	2383.13
3503.31	2367.77
3505.37	2359.73
3507.43	2340.37
3509.48	2354.34
3511.54	2338.97
3513.59	2337.6
3515.65	2314.24
3517.7	2298.21
3519.76	2307.51
3521.81	2358.81
3523.86	2319.44
3525.92	2310.74
3527.97	2315.38
3530.02	2345.35
3532.07	2341.31
3534.12	2333.28
3536.16	2337.92
3538.21	2341.22
3540.26	2349.18
3542.31	2327.82
3544.35	2352.45
3546.4	2333.75
3548.44	2345.72
3550.49	2328.36
3552.53	2370.99
3554.57	2360.29
3556.61	2356.93
3558.65	2334.23
3560.69	2373.53
3562.73	2354.83
3564.77	2354.13
3566.81	2364.76
3568.85	2375.4
3570.89	2366.03
3572.92	2347.33
3574.96	2345.97
3576.99	2348.6
3579.03	2344.57
3581.06	2320.54
3583.1	2301.17
3585.13	2341.81
3587.16	2315.11
3589.19	2275.74
3591.22	2266.38
3593.25	2265.01
3595.28	2266.31
3597.31	2265.61
3599.34	2279.58
3601.36	2265.55
3603.39	2259.52
3605.42	2228.82
3607.44	2255.45
3609.47	2257.42
3611.49	2270.05
3613.51	2206.02
3615.53	2182.66
3617.56	2221.96
3619.58	2225.92
3621.6	2251.23
3623.62	2237.86
3625.64	2248.49
3627.66	2197.8
3629.67	2243.1
3631.69	2242.4
3633.71	2227.7
3635.72	2201
3637.74	2180.3
3639.75	2204.93
3641.77	2187.57
3643.78	2224.2
3645.79	2204.17
3647.8	2170.14
3649.82	2192.11
3651.83	2172.74
3653.84	2194.04
3655.85	2139.34
3657.85	2150.64
3659.86	2161.94
3661.87	2157.91
3663.88	2154.55
3665.88	2202.51
3667.89	2144.48
3669.89	2133.78
3671.9	2137.08
3673.9	2160.39
3675.9	2138.35
3677.9	2110.32
3679.91	2157.62
3681.91	2132.92
3683.91	2160.89
3685.91	2136.19
3687.9	2142.83
3689.9	2128.13
3691.9	2141.43
3693.9	2108.06
3695.89	2097.36
3697.89	2144
3699.88	2135.97
3701.88	2110.6
3703.87	2143.9
3705.86	2113.2
3707.86	2125.17
3709.85	2123.14
3711.84	2161.77
3713.83	2129.74
3715.82	2137.04
3717.81	2146.34
3719.8	2125.64
3721.78	2142.28
3723.77	2132.24
3725.76	2131.55
3727.74	2154.85
3729.73	2182.15
3731.71	2169.45
3733.7	2172.08
3735.68	2147.38
3737.66	2125.35
3739.64	2119.99
3741.62	2149.29
3743.61	2151.25
3745.58	2131.89
3747.56	2159.86
3749.54	2147.16
3751.52	2122.46
3753.5	2131.76
3755.47	2138.39
3757.45	2144.36
3759.43	2158.33
3761.4	2108.3
3763.37	2104.26
3765.35	2155.57
3767.32	2125.53
3769.29	2118.17
3771.26	2123.47
3773.24	2136.77
3775.21	2135.4
3777.17	2116.71
3779.14	2105.34
3781.11	2124.64
3783.08	2146.61
3785.05	2131.91
3787.01	2119.21
3788.98	2100.51
3790.94	2093.15
3792.91	2107.11
3794.87	2109.75
3796.83	2097.72
3798.8	2095.02
3800.76	2112.32
3802.72	2117.62
3804.68	2120.25
3806.64	2166.22
3808.6	2124.19
3810.56	2154.16
3812.51	2120.12
3814.47	2147.42
3816.43	2156.06
3818.38	2108.03
3820.34	2144.66
3822.29	2113.96
3824.25	2145.93
3826.2	2136.56
3828.16	2135.2
3830.11	2139.17
3832.06	2130.47
3834.01	2139.1
3835.96	2145.07
3837.91	2145.04
3839.86	2139.67
3841.81	2131.64
3843.75	2136.27
3845.7	2159.57
3847.65	2175.54
3849.59	2150.18
3851.54	2104.81
3853.48	2131.44
3855.43	2118.08
3857.37	2130.05
3859.31	2147.35
3861.25	2110.65
3863.2	2141.95
3865.14	2143.92
3867.08	2156.55
3869.01	2132.52
3870.95	2125.82
3872.89	2151.12
3874.83	2121.76
3876.77	2099.72
3878.7	2119.02
3880.64	2138.33
3882.57	2124.96
3884.51	2129.59
3886.44	2116.9
3888.37	2096.2
3890.31	2145.5
3892.24	2108.8
3894.17	2144.1
3896.1	2107.4
3898.03	2110.7
3899.96	2079.34
3901.89	2093.3
3903.81	2110.6
3905.74	2065.91
3907.67	2094.54
3909.59	2101.17
3911.52	2077.14
3913.44	2061.11
3915.37	2096.41
3917.29	2075.71
3919.21	2048.35
3921.14	2100.31
3923.06	2096.28
3924.98	2055.58
3926.9	2073.55
3928.82	2157.52
3930.74	2112.15
3932.66	2090.79
3934.57	2072.09
3936.49	2100.72
3938.41	2100.02
3940.32	2060.66
3942.24	2097.96
3944.15	2116.59
3946.07	2119.23
3947.98	2128.53
3949.89	2168.5
3951.8	2116.46
3953.72	2086.43
3955.63	2097.73
3957.54	2109.7
3959.45	2118.33
3961.36	2120.97
3963.26	2144.27
3965.17	2136.24
3967.08	2146.87
3968.98	2111.51
3970.89	2141.47
3972.79	2137.44
3974.7	2151.41
3976.6	2128.71
3978.51	2134.68
3980.41	2141.31
3982.31	2132.61
3984.21	2175.25
3986.11	2183.22
3988.01	2179.85
3989.91	2207.82
3991.81	2149.78
3993.71	2185.75
3995.61	2187.05
3997.51	2175.02
3999.4	2166.32
