#Acq. time (s)=	0.5
#Accumulations=	20
#Range (cm-¹)=	60...4000
#Windows=	2
#Auto scanning=	Off
#Autofocus=	Off
#AutoExposure=	Off
#Spike filter=	Multiple accum.
#Delay time (s)=	0
#Binning=	1
#Readout mode=	Signal
#DeNoise=	Off
#ICS correction=	Off
#Dark correction=	Off
#Inst. Process=	Off
#Detector Gain=	Best Dynamic Range
#Detector ADC=	45 kHz       
#Detector temperature (°C)=	-60.1
#Instrument=	XploRA Plus
#Detector=	Syncerity OE
#Objective=	x50_VIS_LWD
#Grating=	1200 (750nm)
#Filter=	10%
#Laser=	532nm_Edge
#Slit (µm)=	100 
#Hole (µm)=	300 
#Temperature=	0
#StageXY=	75x50mm Scan+
#StageZ=	Z motor
#X (µm)=	0
#Y (µm)=	0
#Z (µm)=	-0.2
#Full time(s)=	33
#Project=	
#Sample=	
#Site=	
#Title=	aqua_15_36_01_2026_04_01_20_0_5 s_532nm_Edge_1200 (750nm)_x50_VIS_LWD_100 µm_300 µm_10%
#Remark=	
#Date=	01.04.2026 15:36
#Acquired=	01.04.2026 15:36:07
#AxisType[0]=Intens
#AxisUnit[0]=Cnt
#AxisType[1]=Spectr
#AxisUnit[1]=1/cm
62.8738	33.3158
66.1253	33.4211
69.3736	32.6842
72.6208	33.8421
75.869	34.6842
79.1139	33.7368
82.3577	34.1579
85.6003	33
88.844	30.579
92.0844	32.7895
95.3237	33.5263
98.5619	33.1053
101.799	30.8947
105.035	33.7368
108.27	33
111.503	30.6842
114.736	31.3158
117.967	30.0526
121.196	32.2632
124.425	30.5789
127.653	31.2105
130.88	31.3158
134.104	32.2632
137.328	28.7895
140.552	32.579
143.773	30.4737
146.994	31.2105
150.212	30.7895
153.431	30.1579
156.647	30.3684
159.862	30.5789
163.078	31.6316
166.291	28.7895
169.502	29.5263
172.713	32.6842
175.924	29.5263
179.132	30.8947
182.339	28.5789
185.545	31.9474
188.75	29
191.954	28.8947
195.157	31.5263
198.358	31.8421
201.559	29.3158
204.758	29.5263
207.954	31
211.152	30.3684
214.348	27.8421
217.543	30.7895
220.734	29.7368
223.927	31.1053
227.117	30.2632
230.307	30.5789
233.495	29.3158
236.683	32.5789
239.868	29.1053
243.055	28.8947
246.238	30.4737
249.42	30.3684
252.603	31.1053
255.782	29.9474
258.961	30.8947
262.139	31.2105
265.315	31
268.49	33.3158
271.665	29
274.838	32.2632
278.01	31.2105
281.181	30.3684
284.351	32.7895
287.52	32.2632
290.688	30.2632
293.852	29.3158
297.018	30.8947
300.183	34.8947
303.344	29.7368
306.506	31.5263
309.665	31.8421
312.826	31.2105
315.983	29.6316
319.141	31.1053
322.296	30.2632
325.45	32.1579
328.604	31.9474
331.756	33.7368
334.907	31.7368
338.056	32.1579
341.205	28.7895
344.352	33.4211
347.498	32.1579
350.643	31.6316
353.788	33.5263
356.931	31.2105
360.073	34.3684
363.214	33.3158
366.353	32.8947
369.49	32.0526
372.628	33.1053
375.765	34.5789
378.898	34.2632
382.033	34.7895
385.164	35.2105
388.296	35.6316
391.426	34.6842
394.556	31.4211
397.683	35.1053
400.809	35.2105
403.936	34.5789
407.06	33.9474
410.183	32.3684
413.305	33.8421
416.426	33.9474
419.545	33
422.664	31.3158
425.781	35.4211
428.898	32.0526
432.013	31.8421
435.128	33.6316
438.239	30.3684
441.351	33.1053
444.463	33.3158
447.571	32.1579
450.68	33.3158
453.786	31.3158
456.893	31.5263
459.997	33.2105
463.102	31.4211
466.204	34.1579
469.305	31.9474
472.406	31.2105
475.505	35.8421
478.603	33.1053
481.699	35.2105
484.795	34.7895
487.889	31.7368
490.983	32.2632
494.075	32.5789
497.166	34.1579
500.257	35.4211
503.346	32.1579
506.434	33.9474
509.519	34.2632
512.606	32.0526
515.691	33.8421
518.773	32.6842
521.856	33.2105
524.936	34.579
528.017	34.8947
531.094	36.6842
534.171	34.1579
537.247	34.6842
540.324	33.1053
543.398	36.1579
546.47	35.3158
549.542	33.4211
552.613	34.1579
555.682	35.6316
558.751	33.9474
561.818	34.6842
564.885	35
567.95	36.2632
571.013	36.7895
574.076	33.6316
577.138	36.6842
580.198	35.6316
583.258	35.2105
586.315	35.2105
589.374	33.9474
592.429	33.6316
595.485	34.7895
598.538	33.7368
601.59	38.0526
604.643	36.2632
607.693	36.8947
610.743	34.7895
613.791	38.6842
616.838	34.5789
619.884	34.4737
622.929	35.6316
625.973	35.2105
629.013	36.7895
632.055	37.7368
635.096	37.9474
638.136	36.8947
641.173	34.4737
644.211	37
647.246	37.6316
650.282	37.3158
653.314	34.1579
656.348	38.5789
659.379	35.6316
662.409	35.7368
665.437	34.4737
668.465	36.8947
671.494	36.7895
674.52	38.1579
677.544	39.2105
680.568	37.4211
683.589	35.7368
686.61	37.9474
689.631	35.3158
692.651	39.1053
695.669	36.2632
698.685	39.4211
701.702	38.4737
704.715	37.2105
707.73	34.8947
710.742	36.8947
713.754	37.7368
716.764	37.5263
719.772	38.3684
722.78	35.4211
725.789	38.5789
728.794	37.5263
731.799	36.4737
734.802	38.2632
737.805	38.5789
740.807	36.5789
743.807	37.7368
746.805	36.8947
749.804	37.8421
752.801	37.1053
755.796	39.9474
758.792	38.3684
761.786	38.579
764.778	39.2105
767.769	36.3684
770.76	38.2632
773.749	39.5263
776.737	38.1579
779.725	40.2632
782.711	37.5263
785.696	41.2105
788.68	37.3158
791.662	38.3684
794.644	38.6842
797.625	38.7895
800.605	39.3158
803.582	39.4211
806.559	41.4211
809.536	41.7368
812.51	40.8947
815.485	39.7368
818.457	38.7895
821.43	40.3684
824.4	41.4211
827.369	40.5789
830.339	40.4737
833.306	42.0526
836.272	38.8947
839.237	41.9474
842.201	41.2105
845.164	37.8421
848.126	38.8947
851.087	42.1579
854.047	41.3158
857.007	40.5789
859.963	39.3158
862.92	40.8947
865.876	38.7895
868.83	40.3684
871.784	42.7895
874.735	38.8947
877.686	44.7895
880.637	40.5789
883.586	39.7368
886.533	41.6316
889.48	40.0526
892.425	43.7368
895.37	47.4211
898.313	42.0526
901.256	43.5263
904.198	43.7368
907.138	40.5789
910.078	41.6316
913.015	43.1053
915.953	41.5263
918.888	42.5789
921.824	40.6842
924.757	42.5789
927.691	43.6316
930.622	41.5263
933.552	43.3158
936.481	42.7895
939.411	42.2632
942.338	43.8421
945.264	42.6842
948.19	44.0526
951.114	40.3684
954.035	41.6316
956.958	40.6842
959.879	43.1053
962.8	43.2105
965.717	43.3158
968.636	40.8947
971.552	44.2632
974.468	42.2632
977.382	43.8421
980.295	41.8421
983.209	40.2632
986.12	45.8421
989.03	42.0526
991.939	43.5263
994.847	44.7895
997.754	41.2105
1000.66	45.4211
1003.57	42.7895
1006.47	44.7895
1009.37	45.2105
1012.27	41.9474
1015.17	44.0526
1018.07	44.7895
1020.97	47.3158
1023.87	44.6842
1026.77	49.2105
1029.66	45
1032.56	48.1579
1035.45	44.8947
1038.34	47.9474
1041.23	45.5263
1044.12	46.2632
1047.01	46.7895
1049.9	46.6842
1052.78	47
1055.67	46.1579
1058.56	46.7895
1061.44	47.4211
1064.32	46.7895
1067.2	46.2623
1070.08	50.3667
1072.96	48.8922
1075.84	49.4177
1078.72	49.7326
1081.6	49.3108
1084.47	49.8362
1087.35	50.7828
1090.22	52.1504
1093.09	53.3074
1095.96	51.096
1098.83	53.5163
1101.7	51.1996
1104.57	53.1988
1107.43	54.1453
1110.3	51.5129
1113.16	54.8805
1116.03	56.2481
1118.89	55.4051
1121.75	56.4569
1124.61	60.1403
1127.47	58.2447
1130.33	59.086
1133.19	56.0325
1136.04	64.979
1138.9	63.1887
1141.75	65.1879
1144.61	63.0818
1147.46	66.3441
1150.31	67.6064
1153.16	68.3424
1156.01	67.71
1158.86	71.6039
1161.7	71.8136
1164.55	70.6549
1167.39	72.233
1170.24	72.969
1173.08	73.1787
1175.92	74.0199
1178.76	77.2822
1181.6	76.6498
1184.44	76.9648
1187.28	78.0166
1190.12	79.0684
1192.95	79.0675
1195.79	76.3298
1198.62	78.6448
1201.45	77.3808
1204.28	77.9063
1207.11	74.7476
1209.94	74.4309
1212.77	70.9564
1215.6	73.9029
1218.42	70.3231
1221.25	73.3749
1224.07	68.7425
1226.9	68.2154
1229.72	68.2145
1232.54	67.0558
1235.36	68.3181
1238.18	68.6331
1241	67.0533
1243.81	69.9998
1246.63	72.3148
1249.44	71.9981
1252.26	71.5763
1255.07	73.5754
1257.88	69.5746
1260.69	73.5737
1263.5	76.9413
1266.31	76.8352
1269.12	79.0449
1271.92	80.7283
1274.73	80.3064
1277.53	83.4634
1280.34	91.4626
1283.14	96.9354
1285.94	104.935
1288.74	110.618
1291.54	110.617
1294.34	113.985
1297.14	121.668
1299.93	132.509
1302.73	147.351
1305.52	170.508
1308.31	192.823
1311.11	232.085
1313.9	281.347
1316.69	370.399
1319.48	521.03
1322.26	793.345
1325.05	1583.87
1327.84	5484.61
1330.62	29663.6
1333.41	43025.8
1336.19	25277.2
1338.97	15854.6
1341.75	6626.29
1344.53	1412.81
1347.31	668.39
1350.09	430.915
1352.87	314.809
1355.64	251.545
1358.42	199.229
1361.19	173.965
1363.96	152.385
1366.74	137.121
1369.51	120.909
1372.28	117.961
1375.04	106.171
1377.81	97.9596
1380.58	97.0114
1383.34	89.7474
1386.11	83.9571
1388.87	87.1141
1391.63	80.2712
1394.4	80.7967
1397.16	75.9537
1399.92	76.0581
1402.67	75.7415
1405.43	71.9512
1408.19	73.1083
1410.95	68.16
1413.7	69.5276
1416.45	68.4742
1419.21	70.2628
1421.96	70.8935
1424.71	66.5769
1427.46	68.8919
1430.21	64.9963
1432.95	68.2586
1435.7	68.1525
1438.45	65.8359
1441.19	64.2561
1443.93	66.571
1446.68	64.2544
1449.42	64.7799
1452.16	62.1475
1454.9	65.3045
1457.64	66.4616
1460.37	63.9344
1463.11	64.1441
1465.85	65.8275
1468.58	65.1951
1471.31	65.089
1474.05	63.2986
1476.78	64.7715
1479.51	64.0338
1482.24	63.5067
1484.97	60.5585
1487.69	63.0839
1490.42	64.5568
1493.15	62.0296
1495.87	62.2393
1498.59	62.2385
1501.32	63.9219
1504.04	63.921
1506.76	64.0254
1509.48	62.6562
1512.2	63.6027
1514.91	61.0756
1517.63	63.601
1520.35	60.8633
1523.06	62.652
1525.77	63.2827
1528.49	60.2293
1531.2	63.9126
1533.91	61.8065
1536.62	64.8583
1539.33	62.2259
1542.04	63.1724
1544.74	66.0137
1547.45	63.5918
1550.15	63.6962
1552.85	61.5901
1555.56	65.2735
1558.26	64.6411
1560.96	64.1139
1563.66	61.692
1566.36	65.7965
1569.06	61.4798
1571.75	63.9001
1574.45	64.8466
1577.14	62.4247
1579.84	64.1081
1582.53	63.2651
1585.22	65.4748
1587.91	63.474
1590.6	62.5258
1593.29	64.8407
1595.98	66.5241
1598.67	63.8917
1601.35	66.4171
1604.04	62.8374
1606.72	62.5207
1609.4	65.1515
1612.09	67.9927
1614.77	61.7814
1617.45	66.3069
1620.13	61.9902
1622.8	67.7789
1625.48	65.2517
1628.16	63.3561
1630.83	64.9342
1633.51	67.0387
1636.18	65.6694
1638.85	63.037
1641.52	63.9835
1644.19	64.1932
1646.86	66.4029
1649.53	67.2442
1652.2	66.0854
1654.86	64.4004
1657.53	64.7153
1660.2	64.8198
1662.86	63.5558
1665.52	63.7654
1668.18	68.8172
1670.84	63.7638
1673.5	65.1314
1676.16	67.9726
1678.82	62.7086
1681.47	63.5499
1684.13	67.8648
1686.79	66.6008
1689.44	65.9684
1692.09	66.2834
1694.74	64.9141
1697.39	65.3343
1700.04	65.3335
1702.69	64.4906
1705.34	66.595
1707.99	62.2784
1710.64	67.8565
1713.28	66.1714
1715.92	66.6969
1718.57	66.6961
1721.21	67.2215
1723.85	65.9575
1726.49	65.3251
1729.13	63.8506
1731.77	63.4287
1734.41	66.9016
1737.04	64.7954
1739.68	65.742
1742.31	65.9517
1744.94	66.5824
1747.58	65.95
1750.21	66.8965
1752.84	66.2641
1755.47	66.2633
1758.1	65.6308
1760.73	65.3142
1763.35	68.9976
1765.98	67.6283
1768.6	70.0485
1771.23	66.2582
1773.85	66.6784
1776.47	66.9934
1779.09	67.8347
1781.71	68.4654
1784.33	66.8856
1786.95	66.9901
1789.57	66.5682
1792.18	68.041
1794.8	66.2507
1797.41	66.8814
1800.03	67.5122
1802.64	70.564
1805.25	67.8263
1807.86	70.2465
1810.47	70.8772
1813.08	71.8238
1815.69	70.0335
1818.29	72.0326
1820.9	70.2423
1823.5	67.9257
1826.11	70.1354
1828.71	70.2398
1831.31	68.9758
1833.91	72.5539
1836.51	71.0794
1839.11	70.5522
1841.71	70.9724
1844.31	71.919
1846.9	70.655
1849.5	70.0226
1852.09	68.2322
1854.69	70.4419
1857.28	73.7042
1859.87	69.0718
1862.46	71.492
1865.05	70.1228
1867.64	72.2272
1870.23	66.3316
1872.81	71.0677
1875.4	69.6984
1877.98	68.6449
1880.57	70.9599
1883.15	69.4853
1885.73	72.5371
1888.31	69.9047
1890.89	68.4302
1893.47	71.2715
1896.05	70.8496
1898.63	69.5856
1901.2	72.0058
1903.78	70.9523
1906.35	68.6357
1908.93	67.7928
1911.5	67.0551
1914.07	70.0016
1916.64	70.6323
1919.21	70.1052
1921.78	70.7359
1924.35	66.314
1926.92	68.7342
1929.48	71.786
1932.05	69.6799
1934.61	70.3107
1937.17	66.9414
1939.74	69.0458
1942.3	66.2029
1944.86	67.1494
1947.42	69.0433
1949.98	69.3583
1952.53	69.568
1955.09	72.725
1957.65	70.6189
1960.2	68.197
1962.76	69.1436
1965.31	71.7743
1967.86	67.8787
1970.41	71.3516
1972.96	68.6139
1975.51	67.8762
1978.06	69.4543
1980.61	73.243
1983.15	69.6632
1985.7	71.136
1988.24	71.451
1990.79	70.5027
1993.33	69.6598
1995.87	70.7116
1998.41	70.5002
2000.95	74.2889
2003.49	71.1301
2006.03	71.3398
2008.57	70.6022
2011.1	69.9697
2013.64	69.3373
2016.17	72.3891
2018.71	71.2304
2021.24	71.5453
2023.77	72.7024
2026.3	69.7542
2028.83	73.5428
2031.36	70.5946
2033.89	71.7517
2036.41	71.435
2038.94	71.1184
2041.47	70.8018
2043.99	72.8009
2046.51	71.8527
2049.04	69.6414
2051.56	71.6405
2054.08	71.1134
2056.6	69.1125
2059.12	69.3222
2061.63	68.7951
2064.15	68.1627
2066.67	71.1092
2069.18	69.6347
2071.7	69.318
2074.21	70.2646
2076.72	69.0006
2079.23	71.2103
2081.74	72.7884
2084.25	70.0507
2086.76	66.892
2089.27	69.8385
2091.78	71.7324
2094.28	69.3105
2096.79	70.9939
2099.29	72.3615
2101.8	69.0975
2104.3	70.2545
2106.8	72.1484
2109.3	72.2528
2111.8	72.5678
2114.3	72.4617
2116.79	71.1977
2119.29	72.9863
2121.79	72.9855
2124.28	75.3004
2126.78	71.0891
2129.27	71.9303
2131.76	70.2453
2134.25	74.2445
2136.74	73.8226
2139.23	76.9796
2141.72	75.5051
2144.21	73.82
2146.7	73.2929
2149.18	73.292
2151.67	73.186
2154.15	74.343
2156.63	75.2895
2159.12	74.2361
2161.6	77.7089
2164.08	78.0239
2166.56	79.1809
2169.04	81.3906
2171.51	78.5477
2173.99	80.231
2176.47	82.8618
2178.94	83.9136
2181.42	83.7022
2183.89	89.0698
2186.36	86.5426
2188.83	83.8049
2191.3	86.1199
2193.77	82.7506
2196.24	85.2761
2198.71	85.3805
2201.18	85.6955
2203.64	83.0631
2206.11	80.5359
2208.57	84.7456
2211.04	84.6395
2213.5	87.2703
2215.96	84.6379
2218.42	86.216
2220.88	88.0046
2223.34	84.3195
2225.8	89.7924
2228.25	87.16
2230.71	88.8433
2233.17	89.5793
2235.62	93.0522
2238.07	90.7355
2240.52	96.2084
2242.98	94.2076
2245.43	95.9962
2247.88	100.206
2250.33	98.4156
2252.77	98.52
2255.22	103.045
2257.67	105.045
2260.11	101.465
2262.56	104.727
2265	107.674
2267.44	107.147
2269.89	105.251
2272.33	105.355
2274.77	109.144
2277.21	106.406
2279.65	109.669
2282.08	108.72
2284.52	113.035
2286.96	111.771
2289.39	111.876
2291.82	111.033
2294.26	113.348
2296.69	113.452
2299.12	113.241
2301.55	116.608
2303.98	116.187
2306.41	118.607
2308.83	119.448
2311.26	119.763
2313.69	126.289
2316.11	119.656
2318.54	121.655
2320.96	120.391
2323.38	121.443
2325.8	124.495
2328.22	122.915
2330.65	128.177
2333.06	127.966
2335.48	130.281
2337.9	129.754
2340.31	129.542
2342.73	132.278
2345.14	127.962
2347.56	131.54
2349.97	130.171
2352.38	133.749
2354.79	131.222
2357.2	132.168
2359.61	129.115
2362.02	133.219
2364.43	135.955
2366.83	132.375
2369.24	137.006
2371.64	134.584
2374.05	136.268
2376.45	138.267
2378.85	140.161
2381.26	139.212
2383.65	144.264
2386.06	140.053
2388.45	145.736
2390.85	143.63
2393.25	150.05
2395.64	147.839
2398.04	147.628
2400.43	150.574
2402.83	151.205
2405.22	152.993
2407.61	146.256
2410	147.939
2412.39	152.991
2414.78	154.359
2417.17	159.516
2419.56	156.883
2421.94	156.461
2424.33	159.829
2426.71	162.249
2429.1	162.775
2431.48	166.037
2433.86	171.089
2436.24	170.983
2438.62	173.298
2441	177.928
2443.38	172.664
2445.76	177.611
2448.14	183.821
2450.51	185.188
2452.89	188.45
2455.26	195.502
2457.63	204.238
2460.01	210.764
2462.38	215.184
2464.75	216.867
2467.12	209.919
2469.49	212.129
2471.86	205.181
2474.22	204.232
2476.59	196.653
2478.96	196.231
2481.32	187.809
2483.69	191.282
2486.05	190.228
2488.41	184.543
2490.77	186.753
2493.13	188.962
2495.49	179.383
2497.85	180.119
2500.21	178.644
2502.56	174.959
2504.92	175.485
2507.28	170.326
2509.63	166.009
2511.99	165.903
2514.34	161.06
2516.69	159.375
2519.04	158.427
2521.39	157.584
2523.74	150.531
2526.09	146.53
2528.44	141.371
2530.78	140.212
2533.13	137.58
2535.47	134.526
2537.82	133.368
2540.16	134.735
2542.5	127.576
2544.85	126.839
2547.19	131.47
2549.53	130.732
2551.87	123.889
2554.2	123.256
2556.54	126.519
2558.88	130.413
2561.21	126.938
2563.55	126.603
2565.88	124.574
2568.21	118.892
2570.55	120.515
2572.88	123.006
2575.21	124.364
2577.54	121.582
2579.87	119.913
2582.19	121.405
2584.52	117.818
2586.85	120.213
2589.17	119.455
2591.5	121.896
2593.82	116.58
2596.15	119.572
2598.47	118.377
2600.79	117.217
2603.11	117.65
2605.43	118.078
2607.75	116.664
2610.07	115.324
2612.38	119.166
2614.7	113.634
2617.01	115.736
2619.33	114.318
2621.64	117.896
2623.96	113.22
2626.27	114.358
2628.58	116.274
2630.89	115.358
2633.2	114.102
2635.51	110.753
2637.81	110.952
2640.12	115.021
2642.43	115.57
2644.73	112.636
2647.04	109.996
2649.34	109.663
2651.64	112.055
2653.94	113.789
2656.25	110.036
2658.55	111.579
2660.85	111.478
2663.14	113.141
2665.44	116.593
2667.74	122.428
2670.03	126.348
2672.33	122.942
2674.62	114.203
2676.92	103.065
2679.21	92.1518
2681.5	83.0706
2683.79	77.3925
2686.08	73.3103
2688.37	69.7181
2690.66	67.1302
2692.95	63.8784
2695.24	63.6655
2697.52	61.9094
2699.81	63.4733
2702.09	61.3677
2704.37	61.3626
2706.66	60.8376
2708.94	60.3121
2711.22	62.0261
2713.5	61.7071
2715.78	62.0398
2718.06	63.554
2720.33	61.5823
2722.61	61.2867
2724.89	60.2445
2727.16	61.1394
2729.44	60.1451
2731.71	59.9619
2733.98	60.3482
2736.26	61.2737
2738.53	62.395
2740.8	61.8724
2743.07	60.3126
2745.33	60.0583
2747.6	60.5268
2749.87	60.9681
2752.14	62.0217
2754.4	60.5148
2756.66	60.6501
2758.93	60.5985
2761.19	59.2786
2763.45	60.989
2765.72	59.6357
2767.98	59.1447
2770.23	62.0471
2772.49	61.0031
2774.75	60.6673
2777.01	61.1818
2779.26	60.5627
2781.52	59.4366
2783.77	60.2484
2786.03	61.0918
2788.28	59.0906
2790.53	57.5786
2792.78	61.4405
2795.03	58.6627
2797.28	57.9545
2797.45	57.866
2799.74	63.0118
2802.03	59.4208
2804.32	61.4087
2806.6	59.8176
2808.89	58.9634
2811.17	60.1093
2813.46	58.413
2815.74	58.7167
2818.02	60.7046
2820.3	58.903
2822.58	61.5225
2824.86	60.7736
2827.14	59.0773
2829.42	61.381
2831.7	57.8952
2833.98	58.8305
2836.25	61.3447
2838.53	58.0695
2840.8	58.8995
2843.08	58.6769
2845.35	57.4016
2847.62	57.4948
2849.9	61.2722
2852.17	59.2601
2854.44	59.248
2856.71	61.7623
2858.98	59.2239
2861.24	63.0013
2863.51	60.7786
2865.78	59.7139
2868.04	58.6492
2870.31	60.9529
2872.57	61.3619
2874.84	61.9814
2877.1	59.443
2879.36	58.9046
2881.62	60.3662
2883.89	60.8804
2886.15	59.4999
2888.41	61.4878
2890.66	61.7915
2892.92	60.2005
2895.18	60.5042
2897.44	59.65
2899.69	64.059
2901.95	57.8363
2904.2	60.9821
2906.46	59.8122
2908.71	63.2738
2910.96	61.9985
2913.21	60.8285
2915.46	65.3428
2917.71	57.1202
2919.96	58.0554
2922.21	61.6223
2924.46	61.2944
2926.71	61.4929
2928.95	61.586
2931.2	63.4687
2933.44	62.1935
2935.68	61.3393
2937.93	61.4324
2940.17	60.6835
2942.41	60.6714
2944.65	61.3962
2946.89	61.1736
2949.13	60.1088
2951.37	62.202
2953.61	62.0847
2955.85	63.1252
2958.09	61.3237
2960.32	59.5221
2962.56	63.4047
2964.79	61.2874
2967.03	62.1174
2969.26	61.6843
2971.49	60.9354
2973.72	59.5549
2975.95	62.3849
2978.18	62.6886
2980.41	60.7817
2982.64	60.5591
2984.87	60.8628
2987.1	62.0086
2989.33	59.4702
2991.55	59.5634
2993.78	62.9198
2996	60.9077
2998.22	61.843
3000.45	62.3572
3002.67	61.0819
3004.89	60.1225
3007.11	62.5315
3009.33	63.6773
3011.55	61.0336
3013.77	61.7584
3015.99	61.0094
3018.21	59.4184
3020.42	62.2484
3022.64	59.8153
3024.85	61.9084
3027.07	60.3174
3029.28	61.2527
3031.49	61.7669
3033.71	58.3864
3035.92	62.0585
3038.13	61.2043
3040.34	60.4554
3042.55	59.3907
3044.76	62.5365
3046.97	61.0507
3049.17	63.6702
3051.38	57.6581
3053.58	61.225
3055.79	60.8971
3058	63.7272
3060.2	63.0835
3062.4	61.0714
3064.6	60.0067
3066.8	60.7314
3069.01	59.4562
3071.21	60.4967
3073.41	62.9057
3075.6	60.7884
3077.8	59.4079
3080	61.2905
3082.2	58.4363
3084.39	59.6874
3086.59	62.5174
3088.78	61.979
3090.97	61.5459
3093.17	61.9548
3095.36	62.2585
3097.55	61.2991
3099.74	60.2344
3101.93	60.2223
3104.12	59.7891
3106.31	60.6192
3108.5	63.1334
3110.68	59.7529
3112.87	58.8987
3115.06	62.1498
3117.24	62.9798
3119.43	63.073
3121.61	62.1135
3123.79	61.0488
3125.98	64.1946
3128.16	62.393
3130.34	62.2757
3132.52	62.1583
3134.7	58.7778
3136.88	61.1868
3139.05	63.9116
3141.23	62.4258
3143.41	61.3611
3145.58	61.2437
3147.76	60.2843
3149.93	62.2722
3152.11	60.8917
3154.28	60.1427
3156.45	58.9728
3158.63	60.4343
3160.8	67.0538
3162.97	59.8839
3165.14	61.6613
3167.3	61.4386
3169.47	61.6371
3171.64	61.8355
3173.81	61.7182
3175.97	61.4956
3178.14	60.3256
3180.3	62.7345
3182.47	61.2488
3184.63	63.5525
3186.79	60.0667
3188.95	58.6862
3191.11	60.4636
3193.28	61.8199
3195.43	61.071
3197.59	61.2694
3199.75	62.0995
3201.91	60.7189
3204.07	62.7069
3206.22	61.2211
3208.38	63.209
3210.53	60.5653
3212.69	59.8164
3214.84	57.4885
3216.99	60.2133
3219.14	59.0433
3221.3	61.347
3223.45	58.9139
3225.6	61.9544
3227.75	57.9423
3229.89	60.5618
3232.04	59.3918
3234.19	59.9061
3236.34	60.6308
3238.48	62.9345
3240.62	59.9751
3242.77	58.1735
3244.91	61.1088
3247.06	63.3072
3249.2	60.1373
3251.34	57.3883
3253.48	61.1657
3255.62	60.2063
3257.76	61.2468
3259.9	59.8663
3262.04	59.9595
3264.17	61.5263
3266.31	57.6195
3268.45	57.7127
3270.58	60.5427
3272.72	60.4254
3274.85	62.9396
3276.98	61.8749
3279.12	62.2838
3281.25	63.1139
3283.38	58.9965
3285.51	63.195
3287.64	61.0776
3289.77	57.8024
3291.89	59.7903
3294.02	60.515
3296.15	61.3451
3298.28	61.2277
3300.4	59.6367
3302.53	63.0983
3304.65	61.0862
3306.77	62.9688
3308.9	61.5883
3311.02	62.8394
3313.14	60.301
3315.26	62.8152
3317.38	61.7505
3319.5	65.1068
3321.62	59.6211
3323.74	63.3985
3325.85	60.2285
3327.97	62.3217
3330.08	60.4148
3332.2	60.508
3334.31	63.2328
3336.43	59.6417
3338.54	61.6296
3340.65	60.1439
3342.77	59.7107
3344.88	61.0671
3346.99	61.055
3349.1	61.2534
3351.21	60.8203
3353.31	61.124
3355.42	62.9014
3357.53	59.4156
3359.63	59.7193
3361.74	58.3388
3363.84	60.3267
3365.95	62.8409
3368.05	59.1446
3370.15	61.9747
3372.26	60.5942
3374.36	58.3715
3376.46	61.6226
3378.56	61.6105
3380.66	62.5458
3382.76	56.639
3384.85	59.2585
3386.95	60.9306
3389.05	60.8133
3391.14	59.0117
3393.24	62.2628
3395.33	59.6191
3397.43	60.5544
3399.52	61.1739
3401.61	59.2671
3403.7	60.8339
3405.79	62.4008
3407.89	61.5466
3409.98	60.1661
3412.06	61.7329
3414.15	60.0366
3416.24	60.3403
3418.33	58.4335
3420.41	61.3688
3422.5	59.7778
3424.58	59.9762
3426.67	61.9641
3428.75	61.2152
3430.83	61.6242
3432.92	61.191
3435	61.9158
3437.08	60.2195
3439.16	60.6285
3441.24	61.248
3443.32	61.5517
3445.4	59.329
3447.47	59.738
3449.55	62.9891
3451.63	60.3454
3453.7	62.3333
3455.78	65.7949
3457.85	60.9407
3459.92	62.8234
3462	62.3902
3464.07	59.8518
3466.14	62.4713
3468.21	62.9856
3470.28	60.3419
3472.35	59.3824
3474.42	59.3704
3476.49	59.8846
3478.55	59.4515
3480.62	61.6499
3482.69	58.901
3484.75	60.3626
3486.82	59.7189
3488.88	61.0752
3490.94	59.0632
3493.01	62.209
3495.07	57.8811
3497.13	59.3427
3499.19	62.8043
3501.25	60.0554
3503.31	62.1485
3505.37	59.2943
3507.43	55.8086
3509.48	60.007
3511.54	61.3633
3513.59	60.5091
3515.65	58.1813
3517.7	59.7481
3519.76	60.8939
3521.81	60.5661
3523.86	58.1329
3525.92	60.9629
3527.97	62.4245
3530.02	58.8335
3532.07	60.0846
3534.12	63.2304
3536.16	56.2709
3538.21	59.3115
3540.26	61.5099
3542.31	58.4452
3544.35	59.591
3546.4	57.2631
3548.44	55.5668
3550.49	59.9758
3552.53	58.2795
3554.57	61.6358
3556.61	55.6238
3558.65	58.138
3560.69	59.8101
3562.73	60.6401
3564.77	56.4175
3566.81	57.3528
3568.85	59.867
3570.89	59.5391
3572.92	61.0008
3574.96	59.4097
3576.99	60.8713
3579.03	58.6487
3581.06	57.8998
3583.1	60.414
3585.13	58.2967
3587.16	61.0214
3589.19	57.8514
3591.22	58.4709
3593.25	61.3009
3595.28	57.6047
3597.31	59.2768
3599.34	57.1594
3601.36	58.5158
3603.39	60.0826
3605.42	58.2811
3607.44	61.4269
3609.47	61.2042
3611.49	58.2448
3613.51	58.338
3615.53	62.0101
3617.56	60.1033
3619.58	57.2491
3621.6	60.3949
3623.62	58.6986
3625.64	56.3707
3627.66	59.9376
3629.67	59.6097
3631.69	56.966
3633.71	60.0066
3635.72	58.9419
3637.74	61.6666
3639.75	57.3388
3641.77	59.4319
3643.78	58.683
3645.79	58.5657
3647.8	58.343
3649.82	57.2783
3651.83	58.4241
3653.84	58.5173
3655.85	57.4526
3657.85	59.7563
3659.86	61.4284
3661.87	58.0479
3663.88	61.299
3665.88	58.8658
3667.89	56.538
3669.89	58.4206
3671.9	58.198
3673.9	59.5543
3675.9	59.8581
3677.9	59.7407
3679.91	60.5707
3681.91	59.085
3683.91	57.0729
3685.91	55.2713
3687.9	58.8382
3689.9	56.7208
3691.9	59.0245
3693.9	59.4335
3695.89	57.1056
3697.89	60.5672
3699.88	59.5025
3701.88	58.7536
3703.87	59.3731
3705.86	57.1504
3707.86	55.9805
3709.85	60.9157
3711.84	59.1142
3713.83	58.4705
3715.82	58.4584
3717.81	56.3411
3719.8	58.75
3721.78	60.5274
3723.77	60.7259
3725.76	57.3454
3727.74	57.9649
3729.73	58.3738
3731.71	59.8354
3733.7	58.3497
3735.68	57.2849
3737.66	58.4307
3739.64	58.1029
3741.62	59.1434
3743.61	57.9734
3745.58	58.5929
3747.56	59.3177
3749.54	57.9372
3751.52	58.1356
3753.5	54.9656
3755.47	59.7957
3757.45	56.9415
3759.43	57.4557
3761.4	59.3383
3763.37	58.2736
3765.35	57.7352
3767.32	55.1968
3769.29	58.4479
3771.26	55.0674
3773.24	54.95
3775.21	56.0958
3777.17	56.6101
3779.14	53.3348
3781.11	56.9017
3783.08	55.7317
3785.05	56.8775
3787.01	58.1286
3788.98	55.4849
3790.94	56.8413
3792.91	51.566
3794.87	56.5013
3796.83	55.2261
3798.8	59.0035
3800.76	54.6756
3802.72	59.5056
3804.68	55.5988
3806.64	54.2183
3808.6	56.4167
3810.56	55.4572
3812.51	55.1294
3814.47	55.7489
3816.43	56.3684
3818.38	53.0931
3820.34	56.2389
3822.29	56.6479
3824.25	54.2147
3826.2	54.4132
3828.16	57.1379
3830.11	55.3364
3832.06	53.8506
3834.01	53.5227
3835.96	52.1422
3837.91	52.2354
3839.86	54.5391
3841.81	56.2112
3843.75	54.936
3845.7	57.1344
3847.65	54.175
3849.59	52.5839
3851.54	55.2034
3853.48	55.7177
3855.43	53.6003
3857.37	53.6935
3859.31	56.4183
3861.25	58.5114
3863.2	55.0257
3865.14	52.5925
3867.08	54.3699
3869.01	56.7789
3870.95	54.3457
3872.89	53.9126
3874.83	53.5847
3876.77	54.941
3878.7	53.7711
3880.64	51.9695
3882.57	54.6943
3884.51	55.9453
3886.44	51.828
3888.37	53.9212
3890.31	54.3301
3892.24	53.4759
3894.17	50.5165
3896.1	53.8728
3898.03	52.3871
3899.96	55.0065
3901.89	54.4681
3903.81	52.1403
3905.74	52.5492
3907.67	53.0635
3909.59	54.5251
3911.52	52.7235
3913.44	52.5009
3915.37	52.6993
3917.29	52.4767
3919.21	51.412
3921.14	53.5052
3923.06	52.1247
3924.98	55.481
3926.9	51.4689
3928.82	53.5621
3930.74	51.3395
3932.66	52.8011
3934.57	53.1048
3936.49	50.7769
3938.41	53.8175
3940.32	54.3317
3942.24	51.688
3944.15	51.8865
3946.07	50.6112
3947.98	49.757
3949.89	53.4292
3951.8	53.4171
3953.72	52.3524
3955.63	49.8139
3957.54	48.3282
3959.45	52.2108
3961.36	52.6198
3963.26	48.5024
3965.17	53.3325
3967.08	51.8467
3968.98	51.203
3970.89	53.9278
3972.79	51.2841
3974.7	52.1141
3976.6	50.5231
3978.51	50.09
3980.41	50.0779
3982.31	50.9079
3984.21	49.8432
3986.11	51.5153
3988.01	52.1348
3989.91	51.4911
3991.81	50.8475
3993.71	49.9933
3995.61	52.0864
3997.51	53.0217
3999.4	50.4833
