#Acq. time (s)=	1
#Accumulations=	20
#Range (cm-¹)=	60...4000
#Windows=	2
#Auto scanning=	Off
#Autofocus=	Off
#AutoExposure=	Off
#Spike filter=	Multiple accum.
#Delay time (s)=	0
#Binning=	1
#Readout mode=	Signal
#DeNoise=	Off
#ICS correction=	Off
#Dark correction=	Off
#Inst. Process=	Off
#Detector Gain=	Best Dynamic Range
#Detector ADC=	45 kHz       
#Detector temperature (°C)=	-60.1
#Instrument=	XploRA Plus
#Detector=	Syncerity OE
#Objective=	x50_VIS_LWD
#Grating=	1200 (750nm)
#Filter=	10%
#Laser=	532nm_Edge
#Slit (µm)=	100 
#Hole (µm)=	300 
#Temperature=	0
#StageXY=	75x50mm Scan+
#StageZ=	Z motor
#X (µm)=	0
#Y (µm)=	0
#Z (µm)=	-0.2
#Full time(s)=	53
#Project=	
#Sample=	
#Site=	
#Title=	aqua_15_26_15_2026_04_01_20_1 s_532nm_Edge_1200 (750nm)_x50_VIS_LWD_100 µm_300 µm_10%
#Remark=	
#Date=	01.04.2026 15:26
#Acquired=	01.04.2026 15:26:22
#AxisType[0]=Intens
#AxisUnit[0]=Cnt
#AxisType[1]=Spectr
#AxisUnit[1]=1/cm
62.8738	33.9474
66.1253	33.5263
69.3736	31.9474
72.6208	34.4737
75.869	31.8421
79.1139	32.8947
82.3577	32.4737
85.6003	29.4211
88.844	29.5263
92.0844	33
95.3237	33.1053
98.5619	31.7368
101.799	30.2632
105.035	30.5789
108.27	28.1579
111.503	28.6842
114.736	30.579
117.967	30.4737
121.196	31.2105
124.425	28.4737
127.653	29.8421
130.88	30.4737
134.104	29.1053
137.328	31.1053
140.552	29.7368
143.773	29
146.994	28.4737
150.212	29.1053
153.431	27.6316
156.647	29.1053
159.862	29.3158
163.078	31.4211
166.291	29.3158
169.502	28.2632
172.713	28.3684
175.924	30.2632
179.132	29.4211
182.339	29
185.545	29.4211
188.75	28.2632
191.954	30.6842
195.157	27.5263
198.358	28.6842
201.559	24.1579
204.758	26.1579
207.954	27.8421
211.152	28.5789
214.348	27.2105
217.543	27.7368
220.734	29
223.927	26.4737
227.117	27.7368
230.307	27.4211
233.495	27.2105
236.683	29.2105
239.868	28.8947
243.055	27.9474
246.238	27.7368
249.42	29.5263
252.603	27.3158
255.782	28.7895
258.961	28.6842
262.139	28.3684
265.315	29.5263
268.49	30.0526
271.665	27.6316
274.838	30.2632
278.01	30.4737
281.181	28.2632
284.351	28.2632
287.52	30.2632
290.688	27.9474
293.852	27.4211
297.018	26.6842
300.183	29
303.344	26.6842
306.506	29.5263
309.665	28.6842
312.826	29
315.983	29.8421
319.141	30.5789
322.296	28.2632
325.45	29.3158
328.604	29
331.756	30.3684
334.907	27
338.056	27.8421
341.205	30.4737
344.352	26.8947
347.498	29.9474
350.643	31.3158
353.788	28.3684
356.931	28.8947
360.073	27.7368
363.214	33
366.353	33.5263
369.49	31
372.628	29.3158
375.765	31.3158
378.898	31.3158
382.033	32.6842
385.164	29.8421
388.296	32.1579
391.426	31.6316
394.556	30.0526
397.683	33.3158
400.809	33.2105
403.936	30.5789
407.06	32.4737
410.183	30.4737
413.305	32.3684
416.426	29
419.545	28.1579
422.664	30.3684
425.781	29.9474
428.898	29.6316
432.013	27.6316
435.128	28.7895
438.239	28.5789
441.351	28.7895
444.463	30.0526
447.571	27
450.68	29.9474
453.786	30.3684
456.893	28.2632
459.997	28.8947
463.102	29.2105
466.204	29.3158
469.305	27.2105
472.406	26.8947
475.505	30.6842
478.603	29.2105
481.699	29.7368
484.795	29.6316
487.889	30.6842
490.983	28.6842
494.075	28.7895
497.166	30.2632
500.257	27.2105
503.346	29.4211
506.434	28.1579
509.519	30.6842
512.606	27.8421
515.691	27.5263
518.773	27.9474
521.856	29.5263
524.936	27
528.017	31
531.094	29
534.171	29.6316
537.247	30.3684
540.324	29.7368
543.398	30.0526
546.47	30.6842
549.542	26.4737
552.613	28.4737
555.682	32.3684
558.751	30.1579
561.818	31
564.885	31.2105
567.95	31.4211
571.013	31.5263
574.076	29.6316
577.138	29.1053
580.198	28.8947
583.258	31.6316
586.315	31
589.374	30.0526
592.429	28.4737
595.485	32.2632
598.538	31.1053
601.59	32.2632
604.643	32.2632
607.693	29.7368
610.743	30.4737
613.791	30.1579
616.838	29.7368
619.884	31.1053
622.929	29.3158
625.973	31.9474
629.013	31.2105
632.055	30.3684
635.096	32.0526
638.136	31.4211
641.173	31
644.211	31.4211
647.246	32.3684
650.282	31.2105
653.314	29.3158
656.348	29.7368
659.379	28.8947
662.409	29.3158
665.437	32.1579
668.465	31.5263
671.494	29.2105
674.52	31.5263
677.544	33.2105
680.568	30.4737
683.589	31.4211
686.61	28.6842
689.631	31
692.651	30.4737
695.669	30.3684
698.685	32.1579
701.702	31.3158
704.715	30.7895
707.73	32.1579
710.742	32.1579
713.754	30.4737
716.764	31.3158
719.772	33.421
722.78	31.9474
725.789	31.6316
728.794	31.4211
731.799	31.2105
734.802	29.9474
737.805	30.1579
740.807	33
743.807	32.0526
746.805	31.9474
749.804	31.7368
752.801	29.9474
755.796	32.4737
758.792	30.3684
761.786	33.3158
764.778	32.8947
767.769	30.4737
770.76	33.3158
773.749	31.7368
776.737	32.3684
779.725	32.4737
782.711	32.0526
785.696	33.5263
788.68	32.7895
791.662	32.1579
794.644	34.0526
797.625	31.1053
800.605	33.4211
803.582	33.9474
806.559	33.9474
809.536	33.4211
812.51	36.5789
815.485	33.3158
818.457	32.0526
821.43	31.5263
824.4	35.6316
827.369	35
830.339	33.5263
833.306	34.5789
836.272	31.6316
839.237	32.6842
842.201	32.8947
845.164	31.3158
848.126	35
851.087	31.4211
854.047	32.6842
857.007	34.2632
859.963	33.1053
862.92	33
865.876	32.5789
868.83	34.6842
871.784	34.3684
874.735	33.4211
877.686	35.1053
880.637	33.5263
883.586	33
886.533	34.2632
889.48	33
892.425	32.6842
895.37	33.3158
898.313	34.2632
901.256	32.8947
904.198	34.8947
907.138	33.9474
910.078	37.2105
913.015	33.3158
915.953	35.2105
918.888	32.5789
921.824	33.5263
924.757	35.1053
927.691	35.4211
930.622	32.6842
933.552	35.8421
936.481	33.7368
939.411	34.0526
942.338	35.1053
945.264	35.8421
948.19	33.6316
951.114	34.0526
954.035	34.5789
956.958	34.6842
959.879	33.7368
962.8	36.5789
965.717	33.4211
968.636	34.6842
971.552	35.2105
974.468	39.6316
977.382	33.9474
980.295	35.8421
983.209	33.9474
986.12	35
989.03	33.6316
991.939	35.3158
994.847	34.7895
997.754	36.7895
1000.66	32.2632
1003.57	34.7895
1006.47	36.5789
1009.37	34.1579
1012.27	37.1053
1015.17	36.3684
1018.07	38.1579
1020.97	36.7895
1023.87	36.2632
1026.77	38.4737
1029.66	37.3158
1032.56	35.3158
1035.45	37.9474
1038.34	37.6316
1041.23	38.0526
1044.12	39.4211
1047.01	37.8421
1049.9	36.6842
1052.78	37.7368
1055.67	41
1058.56	39.2105
1061.44	38.3684
1064.32	39.5263
1067.2	43.0085
1070.08	39.8592
1072.96	41.2361
1075.84	39.1394
1078.72	41.8848
1081.6	42.5249
1084.47	42.1124
1087.35	41.2788
1090.22	40.9716
1093.09	44.0328
1095.96	42.5676
1098.83	43.313
1101.7	43.6373
1104.57	46.6985
1107.43	45.7597
1110.3	45.7682
1113.16	46.1978
1116.03	47.9958
1118.89	48.7412
1121.75	52.9602
1124.61	50.8635
1127.47	56.451
1130.33	53.1964
1133.19	57.626
1136.04	60.4766
1138.9	63.4325
1141.75	64.1779
1144.61	66.6075
1147.46	63.0371
1150.31	63.7825
1153.16	64.0015
1156.01	61.2732
1158.86	66.6502
1161.7	67.7114
1164.55	67.7199
1167.39	73.7284
1170.24	73.4212
1173.08	78.6929
1175.92	78.0698
1178.76	79.6573
1181.6	80.1922
1184.44	81.3586
1187.28	82.104
1190.12	77.5862
1192.95	73.8053
1195.79	73.8138
1198.62	72.5592
1201.45	71.1993
1204.28	72.471
1207.11	72.1638
1209.94	72.2776
1212.77	69.5493
1215.6	68.1894
1218.42	67.3558
1221.25	63.7854
1224.07	59.2676
1226.9	61.592
1229.72	60.5479
1232.54	63.609
1235.36	62.5649
1238.18	65.4156
1241	64.161
1243.81	64.9063
1246.63	67.5465
1249.44	65.555
1252.26	69.9846
1255.07	67.9931
1257.88	69.0543
1260.69	69.2734
1263.5	70.2293
1266.31	71.501
1269.12	73.72
1271.92	74.2549
1274.73	82.895
1277.53	87.8509
1280.34	96.3858
1283.14	102.079
1285.94	105.982
1288.74	115.254
1291.54	121.578
1294.34	128.428
1297.14	134.858
1299.93	150.34
1302.73	166.033
1305.52	196.252
1308.31	226.05
1311.11	275.322
1313.9	340.909
1316.69	455.128
1319.48	641.032
1322.26	1007.46
1325.05	1948.21
1327.84	6595.9
1330.62	33563.6
1333.41	52043.6
1336.19	41443.7
1338.97	29917.4
1341.75	14140.3
1344.53	2637.84
1347.31	1088.38
1350.09	649.862
1352.87	452.713
1355.64	341.353
1358.42	260.204
1361.19	217.581
1363.96	182.431
1366.74	158.229
1369.51	139.291
1372.28	124.036
1375.04	117.202
1377.81	103.632
1380.58	95.0089
1383.34	94.3859
1386.11	83.2365
1388.87	82.2977
1391.63	77.78
1394.4	77.7885
1397.16	72.0076
1399.92	68.3319
1402.67	71.4983
1405.43	64.3489
1408.19	60.7785
1410.95	61.2081
1413.7	64.164
1416.45	61.9621
1419.21	60.6022
1421.96	59.4528
1424.71	58.514
1427.46	56.9436
1430.21	54.4258
1432.95	56.0133
1435.7	53.1797
1438.45	53.8198
1441.19	54.0389
1443.93	54.679
1446.68	55.7402
1449.42	51.854
1452.16	50.1783
1454.9	50.5026
1457.64	46.5112
1460.37	48.8355
1463.11	48.5283
1465.85	49.3789
1468.58	50.7559
1471.31	50.5539
1474.05	48.0361
1476.78	49.7289
1479.51	50.2637
1482.24	48.167
1484.97	48.3861
1487.69	48.0788
1490.42	48.9294
1493.15	50.2011
1495.87	46.2097
1498.59	47.3761
1501.32	49.3846
1504.04	48.9721
1506.76	47.4017
1509.48	48.3576
1512.2	47.5241
1514.91	48.901
1517.63	49.2254
1520.35	48.2865
1523.06	48.6109
1525.77	46.3036
1528.49	47.1542
1531.2	48.4259
1533.91	47.8029
1536.62	49.8114
1539.33	46.4516
1542.04	46.4601
1544.74	46.7844
1547.45	47.9509
1550.15	47.2226
1552.85	46.5995
1555.56	46.9238
1558.26	46.6166
1560.96	47.4672
1563.66	47.0547
1566.36	51.0633
1569.06	47.8086
1571.75	48.0277
1574.45	48.6678
1577.14	48.9922
1579.84	46.5796
1582.53	45.9566
1585.22	48.9125
1587.91	47.0263
1590.6	46.5085
1593.29	45.1486
1595.98	47.473
1598.67	47.7973
1601.35	46.8585
1604.04	49.0775
1606.72	48.3492
1609.4	45.3051
1612.09	48.6821
1614.77	45.9538
1617.45	45.2255
1620.13	46.0761
1622.8	48.1899
1625.48	47.6722
1628.16	46.207
1630.83	48.3208
1633.51	45.2767
1636.18	47.4958
1638.85	46.978
1641.52	48.4602
1644.19	46.3635
1646.86	44.0563
1649.53	49.328
1652.2	45.9681
1654.86	45.8714
1657.53	45.0378
1660.2	46.9411
1662.86	47.4759
1665.52	46.8529
1668.18	48.1246
1670.84	48.6594
1673.5	47.9311
1676.16	46.0449
1678.82	49.0008
1681.47	47.6409
1684.13	45.0179
1686.79	48.0791
1689.44	48.6139
1692.09	49.9909
1694.74	47.2626
1697.39	45.5869
1700.04	45.4902
1702.69	48.6566
1705.34	45.9283
1707.99	47.9369
1710.64	46.8928
1713.28	46.1645
1715.92	46.5941
1718.57	49.3394
1721.21	48.1901
1723.85	47.2512
1726.49	47.1545
1729.13	47.6894
1731.77	49.2769
1734.41	49.8117
1737.04	48.2413
1739.68	46.4604
1742.31	48.5742
1744.94	47.9511
1747.58	46.8018
1750.21	50.1787
1752.84	48.082
1755.47	50.3011
1758.1	47.5728
1760.73	48.1076
1763.35	50.0109
1765.98	51.8089
1768.6	47.6069
1771.23	48.3523
1773.85	48.3609
1776.47	49.3168
1779.09	50.799
1781.71	49.6496
1784.33	50.2897
1786.95	48.2983
1789.57	50.5173
1792.18	49.2627
1794.8	49.3765
1797.41	49.7009
1800.03	51.6041
1802.64	50.8758
1805.25	50.4633
1807.86	52.2613
1810.47	51.2172
1813.08	49.331
1815.69	51.6554
1818.29	50.085
1820.9	53.0409
1823.5	51.8915
1826.11	54.5316
1828.71	49.6981
1831.31	51.075
1833.91	55.0836
1836.51	50.25
1839.11	52.2585
1841.71	49.425
1844.31	51.7493
1846.9	52.1789
1849.5	52.2927
1852.09	50.7223
1854.69	52.415
1857.28	54.9499
1859.87	53.1689
1862.46	53.9143
1865.05	54.4492
1867.64	55.2998
1870.23	55.6241
1872.81	54.5801
1875.4	53.1149
1877.98	54.1761
1880.57	54.3951
1883.15	52.0879
1885.73	55.0438
1888.31	50.4208
1890.89	52.324
1893.47	53.9115
1896.05	52.8674
1898.63	52.3496
1901.2	52.4635
1903.78	53.5246
1906.35	50.6911
1908.93	54.1733
1911.5	52.9187
1914.07	52.6114
1916.64	51.9884
1919.21	49.5759
1921.78	51.2686
1924.35	52.7508
1926.92	51.9172
1929.48	49.2942
1932.05	49.408
1934.61	50.1534
1937.17	48.8988
1939.74	51.7494
1942.3	50.0737
1944.86	52.6086
1947.42	52.3014
1949.98	50.4152
1952.53	51.4763
1955.09	50.4322
1957.65	52.125
1960.2	50.2388
1962.76	52.6684
1965.31	51.098
1967.86	52.5802
1970.41	52.5887
1972.96	54.2815
1975.51	51.2374
1978.06	51.0354
1980.61	51.6755
1983.15	53.8946
1985.7	52.2189
1988.24	53.7011
1990.79	54.236
1993.33	53.9287
1995.87	53.411
1998.41	52.7879
2000.95	59.2175
2003.49	53.0155
2006.03	53.7609
2008.57	54.0852
2011.1	51.9885
2013.64	53.997
2016.17	56.4266
2018.71	56.1194
2021.24	52.8648
2023.77	54.8733
2026.3	51.7239
2028.83	53.522
2031.36	54.8989
2033.89	55.2232
2036.41	54.2844
2038.94	53.2403
2041.47	55.2489
2043.99	53.1521
2046.51	52.4238
2049.04	52.0113
2051.56	52.3356
2054.08	50.1337
2056.6	52.0369
2059.12	52.0455
2061.63	51.633
2064.15	52.1678
2066.67	53.5448
2069.18	53.5533
2071.7	53.1408
2074.21	53.2546
2076.72	55.2631
2079.23	55.5875
2081.74	51.7013
2084.25	56.3414
2086.76	52.6657
2089.27	53.7269
2091.78	52.4723
2094.28	52.0598
2096.79	55.963
2099.29	55.5505
2101.8	52.5064
2104.3	55.9886
2106.8	53.7867
2109.3	54.6373
2111.8	53.4879
2114.3	55.4965
2116.79	54.1366
2119.29	54.9872
2121.79	54.4695
2124.28	51.7412
2126.78	55.3286
2129.27	54.4951
2131.76	55.9773
2134.25	56.5122
2136.74	57.3628
2139.23	59.4766
2141.72	56.4325
2144.21	57.0726
2146.7	58.5548
2149.18	58.1423
2151.67	60.6772
2154.15	59.8436
2156.63	63.2206
2159.12	62.387
2161.6	62.9219
2164.08	63.1409
2166.56	69.4653
2169.04	68.1054
2171.51	66.6402
2173.99	70.6488
2176.47	72.8678
2178.94	73.7185
2181.42	78.8849
2183.89	76.1566
2186.36	77.323
2188.83	76.4895
2191.3	75.3401
2193.77	74.7171
2196.24	77.7783
2198.71	76.7342
2201.18	73.269
2203.64	75.1723
2206.11	70.0229
2208.57	75.0841
2211.04	74.7769
2213.5	71.1012
2215.96	74.3729
2218.42	76.5919
2220.88	79.3373
2223.34	80.609
2225.8	80.5123
2228.25	77.8893
2230.71	81.2662
2233.17	80.5379
2235.62	85.2833
2238.07	83.6076
2240.52	85.4056
2242.98	87.73
2245.43	87.6332
2247.88	90.3786
2250.33	92.8082
2252.77	94.2904
2255.22	94.5095
2257.67	99.5707
2260.11	102.316
2262.56	102.325
2265	100.017
2267.44	101.5
2269.89	103.087
2272.33	104.885
2274.77	107.841
2277.21	105.955
2279.65	104.805
2282.08	107.235
2284.52	104.822
2286.96	108.936
2289.39	110.313
2291.82	110.322
2294.26	115.278
2296.69	116.339
2299.12	115.926
2301.55	115.619
2303.98	119.628
2306.41	118.899
2308.83	120.382
2311.26	126.706
2313.69	126.293
2316.11	125.249
2318.54	125.258
2320.96	127.266
2323.38	130.433
2325.8	130.231
2328.22	130.66
2330.65	132.458
2333.06	134.888
2335.48	136.16
2337.9	135.642
2340.31	139.44
2342.73	136.606
2345.14	137.352
2347.56	139.571
2349.97	138.211
2352.38	140.43
2354.79	138.754
2357.2	142.868
2359.61	138.456
2362.02	143.201
2364.43	143.315
2366.83	144.06
2369.24	141.227
2371.64	143.761
2374.05	145.981
2376.45	141.673
2378.85	146.629
2381.26	153.164
2383.65	154.541
2386.06	152.128
2388.45	154.453
2390.85	154.356
2393.25	160.049
2395.64	164.794
2398.04	162.697
2400.43	163.127
2402.83	164.294
2405.22	167.881
2407.61	168.311
2410	170.635
2412.39	167.38
2414.78	172.126
2417.17	176.45
2419.56	180.353
2421.94	185.099
2424.33	183.107
2426.71	185.747
2429.1	188.282
2431.48	188.606
2433.86	194.194
2436.24	194.729
2438.62	192.422
2441	199.062
2443.38	202.754
2445.76	199.395
2448.14	211.508
2450.51	214.57
2452.89	218.683
2455.26	222.271
2457.63	235.332
2460.01	251.867
2462.38	256.402
2464.75	252.937
2467.12	257.682
2469.49	251.164
2471.86	246.225
2474.22	241.076
2476.59	234.979
2478.96	228.356
2481.32	224.786
2483.69	223.321
2486.05	218.803
2488.41	214.496
2490.77	220.294
2493.13	218.197
2495.49	221.048
2497.85	210.109
2500.21	207.065
2502.56	206.231
2504.92	207.187
2507.28	196.459
2509.63	197.941
2511.99	184.055
2514.34	182.905
2516.69	179.967
2519.04	176.186
2521.39	172.51
2523.74	166.729
2526.09	164.422
2528.44	157.799
2530.78	157.07
2533.13	147.816
2535.47	146.772
2537.82	143.412
2540.16	142.157
2542.5	138.903
2544.85	139.332
2547.19	139.762
2549.53	133.876
2551.87	132.831
2554.2	133.682
2556.54	131.48
2558.88	133.91
2561.21	132.655
2563.55	125.976
2565.88	132.197
2568.21	128.843
2570.55	131.002
2572.88	128.426
2575.21	127.795
2577.54	129.42
2579.87	126.652
2582.19	125.91
2584.52	128.819
2586.85	127.497
2589.17	125.574
2591.5	125.312
2593.82	123.488
2596.15	122.23
2598.47	124.361
2600.79	122.294
2603.11	120.844
2605.43	121.83
2607.75	123.375
2610.07	120.787
2612.38	117.707
2614.7	122.547
2617.01	119.577
2619.33	121.317
2621.64	117.819
2623.96	118.908
2626.27	120.679
2628.58	119.3
2630.89	118.142
2633.2	119.279
2635.51	119.548
2637.81	115.148
2640.12	118.267
2642.43	115.686
2644.73	115.852
2647.04	113.912
2649.34	116.46
2651.64	114.483
2653.94	112.549
2656.25	117.187
2658.55	113.441
2660.85	114.322
2663.14	114.168
2665.44	121.086
2667.74	123.614
2670.03	131.251
2672.33	131.689
2674.62	123.735
2676.92	110.46
2679.21	92.0479
2681.5	79.3208
2683.79	69.8072
2686.08	63.2077
2688.37	56.3803
2690.66	52.2448
2692.95	51.3332
2695.24	48.0799
2697.52	47.3444
2699.81	46.1578
2702.09	46.6204
2704.37	45.577
2706.66	45.0336
2708.94	47.0812
2711.22	44.6119
2713.5	45.7685
2715.78	46.7576
2718.06	44.0457
2720.33	45.2305
2722.61	46.6646
2724.89	46.9045
2727.16	46.1921
2729.44	45.2236
2731.71	44.6449
2733.98	44.5622
2736.26	45.5245
2738.53	45.9401
2740.8	44.315
2743.07	45.8129
2745.33	46.3968
2747.6	46.1591
2749.87	46.2171
2752.14	45.3228
2754.4	44.9932
2756.66	45.7044
2758.93	44.32
2761.19	44.2277
2763.45	44.1778
2765.72	44.3049
2767.98	44.1409
2770.23	45.0849
2772.49	45.1393
2774.75	44.5199
2777.01	47.2086
2779.26	45.0362
2781.52	45.5605
2783.77	46.9443
2786.03	45.0049
2788.28	43.4218
2790.53	44.674
2792.78	44.9201
2795.03	43.1423
2797.28	43.1262
2797.45	43.1099
2799.74	45.5298
2802.03	44.2654
2804.32	44.58
2806.6	44.5788
2808.89	43.4197
2811.17	44.0501
2813.46	44.1542
2815.74	41.7319
2818.02	43.9412
2820.3	46.0453
2822.58	44.3599
2824.86	45.6218
2827.14	44.8838
2829.42	46.8826
2831.7	46.8814
2833.98	44.6696
2836.25	42.1421
2838.53	43.5093
2840.8	43.2976
2843.08	46.349
2845.35	45.7162
2847.62	44.6624
2849.9	45.1875
2852.17	45.8179
2854.44	44.8693
2856.71	45.605
2858.98	44.8669
2861.24	46.3394
2863.51	46.7592
2865.78	43.6001
2868.04	44.7568
2870.31	45.2819
2872.57	47.4913
2874.84	47.3848
2877.1	45.2783
2879.36	45.9087
2881.62	46.0128
2883.89	44.4326
2886.15	45.063
2888.41	46.325
2890.66	46.008
2892.92	43.7962
2895.18	47.2687
2897.44	46.6359
2899.69	46.1084
2901.95	46.844
2904.2	47.5797
2906.46	47.2627
2908.71	45.9983
2910.96	46.1024
2913.21	48.3117
2915.46	47.9947
2917.71	46.204
2919.96	46.7292
2922.21	43.4648
2924.46	50.832
2926.71	46.3045
2928.95	47.6717
2931.2	48.7231
2933.44	47.0377
2935.68	48.6155
2937.93	46.7195
2940.17	45.5604
2942.41	45.9803
2944.65	47.8738
2946.89	47.4515
2949.13	46.7135
2951.37	50.186
2953.61	47.7637
2955.85	47.4467
2958.09	46.4982
2960.32	43.3391
2962.56	44.601
2964.79	46.284
2967.03	43.6512
2969.26	47.5448
2971.49	47.6488
2973.72	47.0161
2975.95	49.2254
2978.18	45.0136
2980.41	48.8019
2982.64	46.8007
2984.87	47.4311
2987.1	46.3772
2989.33	47.0076
2991.55	46.3748
2993.78	46.1631
2996	44.7935
2998.22	47.1081
3000.45	47.4227
3002.67	46.4741
3004.89	47.9466
3007.11	46.0506
3009.33	44.4705
3011.55	48.0482
3013.77	47.2049
3015.99	47.2037
3018.21	47.8341
3020.42	50.2539
3022.64	46.6738
3024.85	46.5673
3027.07	47.6187
3029.28	49.6175
3031.49	48.2479
3033.71	46.4572
3035.92	46.9823
3038.13	48.4548
3040.34	47.6115
3042.55	48.5577
3044.76	47.7144
3046.97	49.7132
3049.17	49.712
3051.38	45.7108
3053.58	46.8674
3055.79	47.6031
3058	47.7071
3060.2	47.4954
3062.4	46.3363
3064.6	47.8088
3066.8	50.4392
3069.01	48.3327
3071.21	45.8052
3073.41	46.3303
3075.6	47.2765
3077.8	48.3279
3080	49.0635
3082.2	48.0097
3084.39	48.0085
3086.59	48.3231
3088.78	50.2166
3090.97	47.4786
3093.17	51.3721
3095.36	49.1604
3097.55	47.3697
3099.74	49.3685
3101.93	49.4725
3104.12	49.3661
3106.31	49.5754
3108.5	50.7321
3110.68	49.6783
3112.87	51.1507
3115.06	50.4127
3117.24	47.1483
3119.43	48.4103
3121.61	48.8301
3123.79	49.4605
3125.98	46.1961
3128.16	47.037
3130.34	49.1411
3132.52	49.3504
3134.7	48.0861
3136.88	47.5585
3139.05	47.031
3141.23	49.6614
3143.41	49.6602
3145.58	47.8695
3147.76	49.6578
3149.93	48.9197
3152.11	50.9185
3154.28	49.6542
3156.45	50.2846
3158.63	51.6518
3160.8	49.2295
3162.97	51.123
3165.14	51.1218
3167.3	49.3312
3169.47	48.1721
3171.64	47.9603
3173.81	49.3276
3175.97	49.6421
3178.14	48.5883
3180.3	50.166
3182.47	48.5859
3184.63	47.111
3186.79	51.4256
3188.95	49.0033
3191.11	46.3706
3193.28	49.2115
3195.43	50.4734
3197.59	51.2091
3199.75	46.6815
3201.91	49.6277
3204.07	51.6265
3206.22	47.6253
3208.38	48.782
3210.53	48.1492
3212.69	47.4111
3214.84	51.3047
3216.99	47.9351
3219.14	48.3549
3221.3	49.9327
3223.45	46.4578
3225.6	49.7197
3227.75	50.4554
3229.89	51.4015
3232.04	46.5582
3234.19	50.9781
3236.34	51.3979
3238.48	47.923
3240.62	49.606
3242.77	50.3417
3244.91	50.3405
3247.06	48.0235
3249.2	48.8644
3251.34	50.6526
3253.48	49.5988
3255.62	48.2292
3257.76	51.9122
3259.9	49.5952
3262.04	50.8571
3264.17	50.2244
3266.31	47.9074
3268.45	50.9588
3270.58	51.905
3272.72	51.4827
3274.85	48.6394
3276.98	49.7961
3279.12	50.7422
3281.25	49.2674
3283.38	50.5293
3285.51	51.686
3287.64	50.3164
3289.77	50.3152
3291.89	52.1035
3294.02	52.3128
3296.15	50.4168
3298.28	51.8893
3300.4	51.7828
3302.53	50.9395
3304.65	52.0962
3306.77	51.3582
3308.9	50.3043
3311.02	52.1979
3313.14	52.4072
3315.26	51.1428
3317.38	52.1943
3319.5	52.4036
3321.62	51.1392
3323.74	51.8749
3325.85	54.9263
3327.97	51.5567
3330.08	48.187
3332.2	53.1332
3334.31	54.5004
3336.43	51.6571
3338.54	51.8664
3340.65	52.6021
3342.77	53.864
3344.88	52.7049
3346.99	53.6511
3349.1	52.2815
3351.21	52.175
3353.31	53.0159
3355.42	53.7515
3357.53	52.4872
3359.63	52.8018
3361.74	50.59
3363.84	49.7467
3365.95	49.7455
3368.05	49.7443
3370.15	50.5852
3372.26	52.0577
3374.36	49.2144
3376.46	51.3185
3378.56	53.0015
3380.66	53.4213
3382.76	54.0517
3384.85	56.0505
3386.95	55.523
3389.05	50.0481
3391.14	49.7311
3393.24	51.3088
3395.33	52.3602
3397.43	49.5169
3399.52	51.9368
3401.61	53.0935
3403.7	52.0397
3405.79	53.6174
3407.89	52.0372
3409.98	54.1413
3412.06	52.6664
3414.15	51.6126
3416.24	52.9798
3418.33	52.2417
3420.41	50.4511
3422.5	52.0288
3424.58	52.975
3426.67	49.5001
3428.75	50.6568
3430.83	55.7082
3432.92	54.2333
3435	50.0216
3437.08	53.8099
3439.16	51.1771
3441.24	51.7022
3443.32	52.8589
3445.4	52.7524
3447.47	52.9617
3449.55	51.1711
3451.63	53.5909
3453.7	53.4844
3455.78	51.1675
3457.85	52.8505
3459.92	55.5861
3462	52.3217
3464.07	51.8995
3466.14	51.4772
3468.21	54.6339
3470.28	52.8432
3472.35	54.5262
3474.42	51.1566
3476.49	53.5765
3478.55	53.0489
3480.62	49.5741
3482.69	50.6255
3484.75	52.3085
3486.82	51.8862
3488.88	53.3587
3490.94	50.9365
3493.01	53.251
3495.07	53.1446
3497.13	53.0381
3499.19	52.4053
3501.25	54.8252
3503.31	52.824
3505.37	54.6122
3507.43	55.5584
3509.48	50.9256
3511.54	53.7665
3513.59	53.4495
3515.65	52.6062
3517.7	53.4471
3519.76	55.2354
3521.81	49.4447
3523.86	52.7067
3525.92	53.5476
3527.97	58.0727
3530.02	54.4925
3532.07	53.0176
3534.12	54.8059
3536.16	51.5415
3538.21	53.1193
3540.26	53.4339
3542.31	53.7485
3544.35	53.7473
3546.4	56.3776
3548.44	50.1659
3550.49	51.6384
3552.53	54.0582
3554.57	53.1097
3556.61	53.2137
3558.65	53.1073
3560.69	54.1587
3562.73	52.5785
3564.77	53.7352
3566.81	52.6814
3568.85	55.8381
3570.89	53.7316
3572.92	52.0462
3574.96	52.5713
3576.99	53.4122
3579.03	54.6742
3581.06	51.7256
3583.1	55.1981
3585.13	52.039
3587.16	55.0904
3589.19	52.4576
3591.22	54.0354
3593.25	55.4026
3595.28	55.7172
3597.31	53.5054
3599.34	55.1884
3601.36	56.1346
3603.39	53.186
3605.42	55.5006
3607.44	54.4468
3609.47	53.4982
3611.49	54.0233
3613.51	52.3379
3615.53	54.0209
3617.56	53.8092
3619.58	53.0711
3621.6	55.491
3623.62	54.2266
3625.64	52.5412
3627.66	53.6979
3629.67	52.0125
3631.69	57.2744
3633.71	55.3785
3635.72	53.3773
3637.74	55.1656
3639.75	54.8486
3641.77	51.6895
3643.78	58.0041
3645.79	51.8976
3647.8	53.8964
3649.82	55.7899
3651.83	53.4729
3653.84	55.0507
3655.85	56.5232
3657.85	51.3641
3659.86	53.9944
3661.87	54.0985
3663.88	56.2025
3665.88	54.9382
3667.89	53.9896
3669.89	55.6726
3671.9	53.6714
3673.9	55.0386
3675.9	57.1427
3677.9	55.2468
3679.91	56.1929
3681.91	56.297
3683.91	55.8747
3685.91	53.663
3687.9	55.0302
3689.9	54.0816
3691.9	54.0804
3693.9	54.5003
3695.89	53.657
3697.89	55.8663
3699.88	53.1282
3701.88	54.1797
3703.87	55.3364
3705.86	55.9668
3707.86	53.5445
3709.85	54.5959
3711.84	57.3315
3713.83	56.6988
3715.82	56.6976
3717.81	54.17
3719.8	55.2215
3721.78	58.5887
3723.77	56.6928
3725.76	55.7442
3727.74	56.164
3729.73	57.7418
3731.71	53.3195
3733.7	59.3183
3735.68	55.3171
3737.66	51.6317
3739.64	53.1042
3741.62	57.524
3743.61	55.207
3745.58	54.3637
3747.56	53.8362
3749.54	55.835
3751.52	53.097
3753.5	56.3589
3755.47	53.9367
3757.45	54.7776
3759.43	57.3027
3761.4	54.0383
3763.37	51.8266
3765.35	56.7727
3767.32	53.1926
3769.29	57.2966
3771.26	56.5586
3773.24	56.6627
3775.21	54.7667
3777.17	53.5024
3779.14	56.7643
3781.11	53.7105
3783.08	57.3935
3785.05	56.5502
3787.01	55.1805
3788.98	56.0214
3790.94	53.3887
3792.91	52.4401
3794.87	50.2284
3796.83	55.1745
3798.8	56.4365
3800.76	54.5405
3802.72	55.4867
3804.68	54.0118
3806.64	55.379
3808.6	56.2199
3810.56	54.324
3812.51	54.4281
3814.47	52.4269
3816.43	53.6888
3818.38	53.4771
3820.34	54.1075
3822.29	54.5273
3824.25	54.6314
3826.2	53.2617
3828.16	52.2079
3830.11	53.4698
3832.06	55.2581
3834.01	52.4148
3835.96	52.8347
3837.91	52.3071
3839.86	53.6744
3841.81	54.6205
3843.75	53.5667
3845.7	53.5655
3847.65	54.9327
3849.59	52.1947
3851.54	53.0356
3853.48	53.9817
3855.43	55.6647
3857.37	53.1372
3859.31	53.7676
3861.25	56.1874
3863.2	52.6073
3865.14	53.9745
3867.08	53.5522
3869.01	56.9195
3870.95	53.9709
3872.89	53.5486
3874.83	49.5474
3876.77	53.0199
3878.7	55.7556
3880.64	53.228
3882.57	54.1742
3884.51	54.594
3886.44	55.6455
3888.37	53.8548
3890.31	52.1694
3892.24	55.2208
3894.17	50.588
3896.1	55.5342
3898.03	55.2172
3899.96	55.4265
3901.89	51.5306
3903.81	53.3188
3905.74	53.5282
3907.67	53.8428
3909.59	54.4731
3911.52	53.8403
3913.44	52.4707
3915.37	51.7327
3917.29	52.9946
3919.21	53.9408
3921.14	55.9396
3923.06	53.0963
3924.98	52.1477
3926.9	53.3044
3928.82	54.1453
3930.74	52.1441
3932.66	54.2482
3934.57	54.247
3936.49	53.6142
3938.41	54.3498
3940.32	53.6118
3942.24	56.5579
3944.15	54.662
3946.07	53.1871
3947.98	48.8701
3949.89	51.0794
3951.8	54.3414
3953.72	52.4454
3955.63	50.9706
3957.54	53.3904
3959.45	52.7576
3961.36	53.5985
3963.26	52.1236
3965.17	54.5435
3967.08	53.4896
3968.98	52.9621
3970.89	52.8557
3972.79	52.8545
3974.7	52.2217
3976.6	53.2731
3978.51	54.0087
3980.41	50.9549
3982.31	53.7958
3984.21	54.8472
3986.11	52.9513
3988.01	53.5817
3989.91	51.4752
3991.81	51.0529
3993.71	55.9991
3995.61	54.5242
3997.51	51.9967
3999.4	53.3639
