#Acq. time (s)=	5
#Accumulations=	4
#Range (cm-¹)=	60...4000
#Windows=	2
#Auto scanning=	Off
#Autofocus=	Off
#AutoExposure=	Off
#Spike filter=	Multiple accum.
#Delay time (s)=	0
#Binning=	1
#Readout mode=	Signal
#DeNoise=	Off
#ICS correction=	Off
#Dark correction=	Off
#Inst. Process=	Off
#Detector Gain=	Best Dynamic Range
#Detector ADC=	45 kHz       
#Detector temperature (°C)=	-60.1
#Instrument=	XploRA Plus
#Detector=	Syncerity OE
#Objective=	x50_VIS_LWD
#Grating=	1200 (750nm)
#Filter=	10%
#Laser=	532nm_Edge
#Slit (µm)=	100 
#Hole (µm)=	300 
#Temperature=	0
#StageXY=	75x50mm Scan+
#StageZ=	Z motor
#X (µm)=	0
#Y (µm)=	0
#Z (µm)=	-0.2
#Full time(mm:ss)=	1:04
#Project=	
#Sample=	
#Site=	
#Title=	moissanite_14_23_30_2026_04_01_4_5 s_532nm_Edge_1200 (750nm)_x50_VIS_LWD_100 µm_300 µm_10%
#Remark=	
#Date=	01.04.2026 14:23
#Acquired=	01.04.2026 14:23:50
#AxisType[0]=Intens
#AxisUnit[0]=Cnt
#AxisType[1]=Spectr
#AxisUnit[1]=1/cm
62.8738	104.333
66.1253	103
69.3736	105
72.6208	108.333
75.869	109
79.1139	118.333
82.3577	101.667
85.6003	113.667
88.844	125.667
92.0844	129.667
95.3237	124.333
98.5619	121
101.799	123.667
105.035	131
108.27	131
111.503	114.333
114.736	117.667
117.967	102.333
121.196	104.333
124.425	92.3333
127.653	81
130.88	93.6667
134.104	81
137.328	90.3333
140.552	86.3333
143.773	85
146.994	80.3333
150.212	82.3333
153.431	81
156.647	93.6667
159.862	89
163.078	83
166.291	83.6667
169.502	76.3333
172.713	79
175.924	78.3333
179.132	82.3333
182.339	76.3333
185.545	79.6667
188.75	79
191.954	92.3333
195.157	105
198.358	123
201.559	341.667
204.758	416.333
207.954	364.333
211.152	313
214.348	143.667
217.543	85.6667
220.734	82.3333
223.927	89
227.117	88.3333
230.307	84.3333
233.495	81.6667
236.683	91
239.868	79
243.055	88.3333
246.238	81
249.42	82.3333
252.603	81.6667
255.782	79
258.961	113
262.139	654.333
265.315	1161
268.49	1121.67
271.665	953.667
274.838	497
278.01	91
281.181	81.6667
284.351	86.3333
287.52	86.3333
290.688	89.6667
293.852	89.6667
297.018	90.3333
300.183	103
303.344	94.3333
306.506	87
309.665	93.6667
312.826	100.333
315.983	95.6667
319.141	91.6667
322.296	105.667
325.45	99
328.604	89
331.756	95.6667
334.907	96.3333
338.056	98.3333
341.205	92.3333
344.352	97.6667
347.498	105
350.643	89
353.788	101
356.931	101.667
360.073	111.667
363.214	111
366.353	103.667
369.49	114.333
372.628	114.333
375.765	124.333
378.898	123.667
382.033	127.667
385.164	132.333
388.296	129.667
391.426	145
394.556	143
397.683	149.667
400.809	141.667
403.936	138.333
407.06	140.333
410.183	141.667
413.305	145.667
416.426	140.333
419.545	134.333
422.664	135
425.781	148.333
428.898	142.333
432.013	151
435.128	148.333
438.239	148.333
441.351	140.333
444.463	146.333
447.571	153
450.68	145.667
453.786	155
456.893	147.667
459.997	157.667
463.102	159.667
466.204	159
469.305	161.667
472.406	157.667
475.505	171
478.603	171
481.699	178.333
484.795	187
487.889	187
490.983	181
494.075	187.667
497.166	181.667
500.257	188.333
503.346	187
506.434	189
509.519	188.333
512.606	207.667
515.691	208.333
518.773	202.333
521.856	215
524.936	214.333
528.017	227
531.094	231
534.171	229
537.247	249
540.324	241.667
543.398	266.333
546.47	263.667
549.542	265
552.613	265
555.682	274.333
558.751	270.333
561.818	277
564.885	283
567.95	287
571.013	281.667
574.076	296.333
577.138	303.667
580.198	314.333
583.258	322.333
586.315	336.333
589.374	357.667
592.429	349.667
595.485	351
598.538	378.333
601.59	365
604.643	427
607.693	705
610.743	833.667
613.791	783
616.838	696.333
619.884	463.667
622.929	422.333
625.973	463
629.013	473
632.055	503
635.096	516.333
638.136	493.667
641.173	461
644.211	419
647.246	397.667
650.282	379
653.314	355.667
656.348	355.667
659.379	356.333
662.409	363
665.437	376.333
668.465	370.333
671.494	358.333
674.52	343
677.544	331.667
680.568	334.333
683.589	332.333
686.61	325.667
689.631	331.667
692.651	338.333
695.669	341.667
698.685	351
701.702	347.667
704.715	376.333
707.73	370.333
710.742	396.333
713.754	397
716.764	414.333
719.772	437.667
722.78	457
725.789	478.333
728.794	489.667
731.799	460.333
734.802	462.333
737.805	489.667
740.807	533
743.807	554.333
746.805	584.333
749.804	598.333
752.801	633.667
755.796	718.333
758.792	790.333
761.786	903.667
764.778	1122.33
767.769	1471.67
770.76	2349
773.749	5257
776.737	9991
779.725	23845.7
782.711	42809
785.696	43056.3
788.68	35590.3
791.662	23201.7
794.644	10922.3
797.625	11221.7
800.605	10033.7
803.582	7898.33
806.559	4508.33
809.536	1303
812.51	746.333
815.485	563.667
818.457	457
821.43	419.667
824.4	375.667
827.369	373
830.339	343
833.306	393.667
836.272	702.333
839.237	806.333
842.201	769.667
845.164	664.333
848.126	405
851.087	301.667
854.047	296.333
857.007	284.333
859.963	295
862.92	278.333
865.876	277
868.83	291.667
871.784	292.333
874.735	289.667
877.686	285.667
880.637	285.667
883.586	301.667
886.533	295.667
889.48	279.667
892.425	289
895.37	283.667
898.313	287
901.256	297
904.198	291.667
907.138	302.333
910.078	299
913.015	308.333
915.953	297.667
918.888	311.667
921.824	305
924.757	300.333
927.691	293
930.622	291
933.552	302.333
936.481	310.333
939.411	311
942.338	331.667
945.264	327
948.19	345.667
951.114	398.333
954.035	448.333
956.958	595.667
959.879	933.667
962.8	1767
965.717	4814.33
968.636	11757.7
971.552	14806.3
974.468	13876.3
977.382	10487
980.295	4479
983.209	1563.67
986.12	841.667
989.03	584.333
991.939	485
994.847	399
997.754	368.333
1000.66	334.333
1003.57	294.333
1006.47	273.667
1009.37	279.667
1012.27	253.667
1015.17	232.333
1018.07	238.333
1020.97	238.333
1023.87	243
1026.77	225.667
1029.66	245.667
1032.56	241
1035.45	245
1038.34	253.667
1041.23	257.667
1044.12	258.333
1047.01	261.667
1049.9	271.667
1052.78	293.667
1055.67	305.667
1058.56	305.667
1061.44	328.333
1064.32	363
1067.2	362.334
1070.08	379.667
1072.96	426.335
1075.84	414.335
1078.72	419.002
1081.6	416.336
1084.47	419.669
1087.35	423.67
1090.22	427.67
1093.09	431.004
1095.96	436.338
1098.83	429.005
1101.7	418.338
1104.57	431.672
1107.43	429.006
1110.3	434.34
1113.16	455.673
1116.03	460.34
1118.89	453.674
1121.75	444.341
1124.61	453.675
1127.47	441.009
1130.33	422.342
1133.19	404.343
1136.04	403.677
1138.9	384.344
1141.75	391.011
1144.61	386.344
1147.46	377.678
1150.31	370.345
1153.16	374.346
1156.01	365.013
1158.86	369.68
1161.7	378.347
1164.55	376.347
1167.39	361.014
1170.24	355.015
1173.08	327.015
1175.92	339.682
1178.76	322.349
1181.6	305.016
1184.44	305.683
1187.28	293.684
1190.12	292.351
1192.95	295.018
1195.79	295.018
1198.62	287.685
1201.45	286.352
1204.28	265.019
1207.11	271.686
1209.94	260.353
1212.77	253.021
1215.6	247.021
1218.42	249.688
1221.25	231.688
1224.07	239.022
1226.9	226.356
1229.72	237.023
1232.54	203.69
1235.36	215.024
1238.18	210.357
1241	206.358
1243.81	203.692
1246.63	206.359
1249.44	199.692
1252.26	202.359
1255.07	198.36
1257.88	181.027
1260.69	191.694
1263.5	186.361
1266.31	187.028
1269.12	173.695
1271.92	175.695
1274.73	171.029
1277.53	161.696
1280.34	181.03
1283.14	163.03
1285.94	174.364
1288.74	171.698
1291.54	186.365
1294.34	175.032
1297.14	175.699
1299.93	181.033
1302.73	191.7
1305.52	183.034
1308.31	173.701
1311.11	191.034
1313.9	188.368
1316.69	178.368
1319.48	179.036
1322.26	177.703
1325.05	179.703
1327.84	163.703
1330.62	164.37
1333.41	169.038
1336.19	161.038
1338.97	161.705
1341.75	163.705
1344.53	163.039
1347.31	164.373
1350.09	160.373
1352.87	156.374
1355.64	155.041
1358.42	163.041
1361.19	167.708
1363.96	167.042
1366.74	168.376
1369.51	182.376
1372.28	169.71
1375.04	175.71
1377.81	171.71
1380.58	183.044
1383.34	187.045
1386.11	200.378
1388.87	199.712
1391.63	213.712
1394.4	219.046
1397.16	227.047
1399.92	239.714
1402.67	247.714
1405.43	243.714
1408.19	244.381
1410.95	237.049
1413.7	238.382
1416.45	214.383
1419.21	217.05
1421.96	228.383
1424.71	197.051
1427.46	208.384
1430.21	177.051
1432.95	178.385
1435.7	173.052
1438.45	159.053
1441.19	145.72
1443.93	150.387
1446.68	151.72
1449.42	151.721
1452.16	148.388
1454.9	124.388
1457.64	138.389
1460.37	128.389
1463.11	136.389
1465.85	136.39
1468.58	161.057
1471.31	212.391
1474.05	288.391
1476.78	400.391
1479.51	473.058
1482.24	517.059
1484.97	518.393
1487.69	510.393
1490.42	494.393
1493.15	527.727
1495.87	546.394
1498.59	604.395
1501.32	728.395
1504.04	887.062
1506.76	1082.4
1509.48	1269.06
1512.2	1416.4
1514.91	1492.4
1517.63	1474.4
1520.35	1468.4
1523.06	1382.4
1525.77	1282.4
1528.49	1197.73
1531.2	1149.73
1533.91	1043.07
1536.62	1021.07
1539.33	1016.4
1542.04	1031.07
1544.74	999.735
1547.45	939.068
1550.15	887.735
1552.85	820.402
1555.56	759.069
1558.26	734.403
1560.96	727.07
1563.66	696.404
1566.36	662.404
1569.06	621.738
1571.75	629.072
1574.45	623.072
1577.14	601.073
1579.84	596.406
1582.53	571.74
1585.22	520.407
1587.91	488.408
1590.6	465.075
1593.29	458.408
1595.98	441.075
1598.67	474.409
1601.35	513.743
1604.04	553.743
1606.72	597.077
1609.4	595.744
1612.09	565.744
1614.77	538.411
1617.45	499.079
1620.13	484.412
1622.8	478.413
1625.48	466.413
1628.16	426.413
1630.83	423.747
1633.51	409.081
1636.18	382.415
1638.85	365.748
1641.52	369.082
1644.19	362.416
1646.86	364.416
1649.53	362.417
1652.2	365.75
1654.86	353.084
1657.53	343.751
1660.2	337.752
1662.86	315.752
1665.52	310.419
1668.18	322.419
1670.84	327.753
1673.5	355.754
1676.16	383.087
1678.82	400.421
1681.47	424.421
1684.13	488.422
1686.79	533.089
1689.44	580.423
1692.09	587.756
1694.74	585.09
1697.39	591.757
1700.04	604.424
1702.69	619.758
1705.34	656.425
1707.99	702.425
1710.64	719.759
1713.28	731.759
1715.92	755.093
1718.57	726.427
1721.21	669.761
1723.85	628.428
1726.49	589.761
1729.13	535.095
1731.77	499.096
1734.41	484.429
1737.04	473.763
1739.68	451.763
1742.31	447.764
1744.94	403.098
1747.58	421.765
1750.21	399.098
1752.84	387.765
1755.47	377.766
1758.1	376.433
1760.73	356.433
1763.35	363.1
1765.98	361.101
1768.6	351.101
1771.23	341.101
1773.85	341.102
1776.47	353.769
1779.09	332.436
1781.71	335.77
1784.33	333.103
1786.95	349.104
1789.57	335.104
1792.18	329.771
1794.8	348.438
1797.41	335.772
1800.03	329.106
1802.64	342.44
1805.25	323.107
1807.86	335.774
1810.47	319.774
1813.08	319.108
1815.69	337.775
1818.29	333.775
1820.9	326.442
1823.5	319.776
1826.11	339.11
1828.71	325.11
1831.31	324.444
1833.91	310.444
1836.51	305.111
1839.11	304.445
1841.71	315.779
1844.31	325.779
1846.9	325.113
1849.5	325.78
1852.09	340.447
1854.69	334.447
1857.28	329.115
1859.87	339.115
1862.46	337.115
1865.05	322.449
1867.64	337.116
1870.23	335.116
1872.81	331.784
1875.4	342.451
1877.98	340.451
1880.57	336.451
1883.15	327.785
1885.73	342.452
1888.31	329.786
1890.89	336.453
1893.47	339.787
1896.05	333.12
1898.63	329.121
1901.2	323.121
1903.78	326.455
1906.35	321.122
1908.93	319.122
1911.5	325.123
1914.07	309.79
1916.64	311.124
1919.21	299.791
1921.78	295.124
1924.35	274.458
1926.92	264.458
1929.48	254.459
1932.05	226.459
1934.61	197.126
1937.17	176.46
1939.74	159.794
1942.3	125.794
1944.86	121.128
1947.42	105.128
1949.98	105.129
1952.53	99.7958
1955.09	103.129
1957.65	96.4632
1960.2	97.797
1962.76	97.1307
1965.31	103.798
1967.86	97.1315
1970.41	95.1319
1972.96	95.7989
1975.51	87.1327
1978.06	88.4664
1980.61	91.8001
1983.15	99.1338
1985.7	93.1342
1988.24	94.468
1990.79	88.4684
1993.33	92.4688
1995.87	97.8025
1998.41	89.8029
2000.95	97.8033
2003.49	99.137
2006.03	90.4707
2008.57	96.4711
2011.1	96.4715
2013.64	92.4719
2016.17	90.4723
2018.71	95.1394
2021.24	94.4731
2023.77	98.4735
2026.3	99.8072
2028.83	94.4743
2031.36	95.808
2033.89	99.8084
2036.41	91.8088
2038.94	93.8092
2041.47	87.1429
2043.99	89.81
2046.51	96.477
2049.04	93.8108
2051.56	92.4778
2054.08	93.1449
2056.6	95.1453
2059.12	94.479
2061.63	91.8127
2064.15	95.8131
2066.67	92.4802
2069.18	101.147
2071.7	103.148
2074.21	94.4814
2076.72	91.8151
2079.23	101.816
2081.74	96.4826
2084.25	97.1496
2086.76	92.4834
2089.27	93.1504
2091.78	101.151
2094.28	93.8179
2096.79	98.4849
2099.29	93.152
2101.8	95.1524
2104.3	99.8195
2106.8	96.4865
2109.3	97.1536
2111.8	94.4873
2114.3	90.4877
2116.79	99.1548
2119.29	100.488
2121.79	96.4889
2124.28	93.1559
2126.78	92.4897
2129.27	98.4901
2131.76	99.1571
2134.25	95.8242
2136.74	101.825
2139.23	95.825
2141.72	94.4921
2144.21	99.8258
2146.7	92.4928
2149.18	94.4932
2151.67	99.1603
2154.15	94.494
2156.63	105.161
2159.12	92.4948
2161.6	101.829
2164.08	87.1623
2166.56	98.496
2169.04	90.4964
2171.51	93.8301
2173.99	99.1638
2176.47	97.8309
2178.94	99.1646
2181.42	95.165
2183.89	111.832
2186.36	89.8325
2188.83	91.8329
2191.3	97.8333
2193.77	91.167
2196.24	94.5007
2198.71	96.5011
2201.18	92.5015
2203.64	98.5019
2206.11	91.169
2208.57	101.169
2211.04	99.8364
2213.5	106.503
2215.96	93.8372
2218.42	93.8376
2220.88	103.838
2223.34	97.1717
2225.8	108.505
2228.25	94.5059
2230.71	97.1729
2233.17	89.84
2235.62	99.1737
2238.07	103.174
2240.52	100.508
2242.98	97.8416
2245.43	98.5086
2247.88	101.842
2250.33	105.843
2252.77	102.51
2255.22	99.8435
2257.67	107.844
2260.11	106.511
2262.56	103.845
2265	115.845
2267.44	113.179
2269.89	101.179
2272.33	97.1796
2274.77	110.513
2277.21	108.514
2279.65	109.181
2282.08	109.848
2284.52	101.848
2286.96	111.849
2289.39	100.516
2291.82	103.183
2294.26	107.85
2296.69	115.85
2299.12	107.851
2301.55	99.851
2303.98	108.518
2306.41	111.185
2308.83	100.519
2311.26	104.519
2313.69	104.52
2316.11	108.52
2318.54	103.854
2320.96	103.854
2323.38	113.188
2325.8	111.855
2328.22	101.855
2330.65	111.189
2333.06	109.19
2335.48	111.857
2337.9	108.524
2340.31	105.857
2342.73	109.191
2345.14	106.525
2347.56	107.859
2349.97	99.1923
2352.38	100.526
2354.79	100.526
2357.2	112.527
2359.61	111.194
2362.02	111.194
2364.43	113.195
2366.83	106.528
2369.24	108.529
2371.64	108.529
2374.05	116.53
2376.45	105.863
2378.85	111.197
2381.26	119.197
2383.65	113.864
2386.06	112.532
2388.45	108.532
2390.85	111.866
2393.25	108.533
2395.64	113.2
2398.04	109.2
2400.43	113.201
2402.83	107.868
2405.22	116.535
2407.61	112.535
2410	117.202
2412.39	115.869
2414.78	115.87
2417.17	110.537
2419.56	115.87
2421.94	112.537
2424.33	125.871
2426.71	108.538
2429.1	113.872
2431.48	112.539
2433.86	110.539
2436.24	118.54
2438.62	111.207
2441	113.207
2443.38	102.541
2445.76	109.875
2448.14	113.208
2450.51	114.542
2452.89	111.876
2455.26	116.543
2457.63	112.543
2460.01	105.877
2462.38	122.544
2464.75	108.545
2467.12	110.545
2469.49	113.212
2471.86	109.879
2474.22	109.879
2476.59	111.88
2478.96	118.547
2481.32	114.547
2483.69	122.548
2486.05	116.548
2488.41	115.882
2490.77	115.882
2493.13	109.216
2495.49	99.2163
2497.85	120.55
2500.21	111.217
2502.56	115.884
2504.92	106.551
2507.28	115.885
2509.63	122.552
2511.99	111.886
2514.34	113.886
2516.69	117.22
2519.04	107.22
2521.39	113.221
2523.74	112.554
2526.09	113.221
2528.44	117.222
2530.78	109.889
2533.13	115.223
2535.47	109.223
2537.82	111.89
2540.16	116.557
2542.5	113.224
2544.85	113.891
2547.19	113.892
2549.53	113.225
2551.87	103.892
2554.2	117.893
2556.54	109.893
2558.88	111.227
2561.21	116.561
2563.55	115.204
2565.88	111.219
2568.21	109.251
2570.55	111.869
2572.88	111.201
2575.21	107.32
2577.54	117.264
2579.87	115.055
2582.19	115.687
2584.52	114.314
2586.85	118.044
2589.17	115.887
2591.5	113.074
2593.82	119.57
2596.15	116.833
2598.47	119.63
2600.79	119.522
2603.11	115.171
2605.43	116.95
2607.75	110.052
2610.07	117.586
2612.38	111.058
2614.7	118.788
2617.01	111.539
2619.33	111.644
2621.64	114.42
2623.96	114.324
2626.27	109.275
2628.58	112.997
2630.89	112.33
2633.2	116.679
2635.51	116.242
2637.81	116.844
2640.12	114.208
2642.43	112.036
2644.73	107.617
2647.04	105.849
2649.34	110.527
2651.64	112.22
2653.94	114.416
2656.25	113.978
2658.55	116.326
2660.85	114.57
2663.14	108.516
2665.44	114.201
2667.74	114.84
2670.03	116.567
2672.33	109.87
2674.62	117.651
2676.92	115.446
2679.21	117.642
2681.5	118.167
2683.79	109.595
2686.08	116.633
2688.37	114.974
2690.66	114.954
2692.95	115.104
2695.24	114.374
2697.52	114.417
2699.81	114.087
2702.09	111.258
2704.37	116.121
2706.66	115.658
2708.94	116.599
2711.22	115.65
2713.5	120.284
2715.78	118.638
2718.06	115.378
2720.33	114.441
2722.61	117.439
2724.89	117.503
2727.16	118.426
2729.44	116.87
2731.71	114.179
2733.98	118.942
2736.26	118.587
2738.53	119.421
2740.8	124.061
2743.07	116.456
2745.33	123.865
2747.6	120.578
2749.87	119.311
2752.14	122.811
2754.4	121.482
2756.66	120.611
2758.93	119.436
2761.19	120.993
2763.45	118.211
2765.72	119.535
2767.98	121.085
2770.23	115.854
2772.49	121.109
2774.75	116.92
2777.01	122.205
2779.26	109.918
2781.52	114.256
2783.77	114.548
2786.03	128.668
2788.28	121.387
2790.53	119.444
2792.78	118.944
2795.03	115.793
2797.28	114.983
2797.45	114.923
2799.74	118.917
2802.03	124.912
2804.32	126.24
2806.6	112.901
2808.89	118.895
2811.17	120.223
2813.46	118.884
2815.74	122.879
2818.02	119.54
2820.3	112.201
2822.58	118.195
2824.86	112.19
2827.14	122.851
2829.42	128.845
2831.7	106.173
2833.98	128.834
2836.25	116.829
2838.53	113.49
2840.8	124.818
2843.08	121.479
2845.35	126.14
2847.62	119.468
2849.9	120.129
2852.17	122.79
2854.44	124.785
2856.71	124.779
2858.98	124.107
2861.24	132.768
2863.51	128.096
2865.78	130.09
2868.04	131.418
2870.31	117.413
2872.57	124.741
2874.84	124.068
2877.1	118.063
2879.36	125.391
2881.62	128.718
2883.89	122.713
2886.15	126.041
2888.41	128.702
2890.66	118.03
2892.92	126.024
2895.18	129.352
2897.44	124.013
2899.69	134.008
2901.95	124.669
2904.2	117.33
2906.46	131.991
2908.71	131.985
2910.96	115.98
2913.21	124.641
2915.46	124.636
2917.71	127.297
2919.96	128.625
2922.21	127.952
2924.46	131.28
2926.71	127.275
2928.95	128.602
2931.2	125.264
2933.44	128.591
2935.68	136.586
2937.93	134.58
2940.17	131.241
2942.41	126.569
2944.65	125.23
2946.89	138.558
2949.13	133.219
2951.37	136.547
2953.61	126.542
2955.85	123.203
2958.09	143.864
2960.32	127.858
2962.56	131.853
2964.79	125.847
2967.03	133.175
2969.26	128.503
2971.49	123.164
2973.72	128.492
2975.95	141.153
2978.18	123.148
2980.41	120.475
2982.64	132.47
2984.87	127.798
2987.1	129.125
2989.33	133.787
2991.55	125.781
2993.78	131.109
2996	133.103
2998.22	127.098
3000.45	135.759
3002.67	133.087
3004.89	131.081
3007.11	136.409
3009.33	125.737
3011.55	131.065
3013.77	129.726
3015.99	129.72
3018.21	131.715
3020.42	135.043
3022.64	127.704
3024.85	139.032
3027.07	128.359
3029.28	137.687
3031.49	126.348
3033.71	139.009
3035.92	127.671
3038.13	132.998
3040.34	134.326
3042.55	120.321
3044.76	131.648
3046.97	140.976
3049.17	130.971
3051.38	129.632
3053.58	122.293
3055.79	130.288
3058	132.949
3060.2	131.61
3062.4	128.938
3064.6	131.599
3066.8	134.927
3069.01	125.588
3071.21	132.916
3073.41	137.577
3075.6	131.571
3077.8	130.899
3080	136.227
3082.2	136.888
3084.39	127.549
3086.59	134.877
3088.78	126.871
3090.97	130.199
3093.17	134.86
3095.36	126.855
3097.55	132.183
3099.74	128.844
3101.93	129.505
3104.12	133.499
3106.31	130.827
3108.5	128.155
3110.68	132.149
3112.87	131.477
3115.06	130.138
3117.24	130.133
3119.43	130.127
3121.61	137.455
3123.79	134.116
3125.98	125.444
3128.16	127.439
3130.34	132.766
3132.52	130.761
3134.7	133.422
3136.88	136.083
3139.05	129.411
3141.23	132.739
3143.41	135.4
3145.58	135.394
3147.76	142.722
3149.93	136.05
3152.11	133.378
3154.28	136.706
3156.45	138.033
3158.63	128.695
3160.8	129.356
3162.97	139.35
3165.14	133.345
3167.3	138.672
3169.47	130.667
3171.64	128.661
3173.81	127.989
3175.97	135.984
3178.14	136.645
3180.3	139.306
3182.47	139.3
3184.63	135.962
3186.79	139.956
3188.95	137.284
3191.11	135.945
3193.28	129.939
3195.43	129.934
3197.59	139.928
3199.75	141.256
3201.91	136.584
3204.07	123.912
3206.22	138.573
3208.38	131.234
3210.53	133.895
3212.69	141.223
3214.84	139.218
3216.99	141.212
3219.14	140.54
3221.3	136.534
3223.45	146.529
3225.6	130.523
3227.75	136.518
3229.89	138.512
3232.04	137.173
3234.19	136.501
3236.34	137.162
3238.48	137.823
3240.62	135.818
3242.77	131.812
3244.91	137.14
3247.06	131.135
3249.2	142.463
3251.34	137.124
3253.48	141.785
3255.62	141.779
3257.76	123.774
3259.9	137.768
3262.04	137.763
3264.17	143.757
3266.31	137.085
3268.45	139.079
3270.58	137.741
3272.72	131.735
3274.85	135.063
3276.98	139.057
3279.12	147.052
3281.25	129.046
3283.38	147.041
3285.51	141.702
3287.64	135.696
3289.77	146.358
3291.89	141.019
3294.02	145.68
3296.15	145.008
3298.28	137.669
3300.4	142.997
3302.53	140.324
3304.65	142.319
3306.77	140.98
3308.9	137.641
3311.02	136.302
3313.14	133.63
3315.26	144.291
3317.38	129.619
3319.5	142.28
3321.62	139.608
3323.74	141.603
3325.85	144.264
3327.97	130.258
3330.08	134.919
3332.2	144.914
3334.31	139.575
3336.43	142.903
3338.54	148.23
3340.65	135.558
3342.77	142.886
3344.88	150.881
3346.99	146.208
3349.1	143.536
3351.21	145.531
3353.31	138.192
3355.42	142.853
3357.53	146.847
3359.63	138.175
3361.74	134.836
3363.84	137.498
3365.95	148.159
3368.05	150.153
3370.15	149.481
3372.26	142.142
3374.36	146.137
3376.46	146.131
3378.56	136.792
3380.66	146.787
3382.76	148.114
3384.85	141.442
3386.95	148.77
3389.05	148.098
3391.14	144.092
3393.24	147.42
3395.33	136.081
3397.43	144.742
3399.52	140.07
3401.61	141.398
3403.7	138.726
3405.79	140.054
3407.89	144.048
3409.98	149.376
3412.06	147.37
3414.15	150.032
3416.24	148.026
3418.33	145.354
3420.41	141.348
3422.5	134.676
3424.58	148.671
3426.67	147.332
3428.75	143.993
3430.83	148.654
3432.92	145.982
3435	145.976
3437.08	137.971
3439.16	148.632
3441.24	149.293
3443.32	152.621
3445.4	150.615
3447.47	143.277
3449.55	151.271
3451.63	144.599
3453.7	144.593
3455.78	160.588
3457.85	147.249
3459.92	140.577
3462	155.905
3464.07	147.899
3466.14	152.56
3468.21	157.221
3470.28	145.216
3472.35	143.21
3474.42	147.205
3476.49	150.533
3478.55	153.194
3480.62	150.522
3482.69	147.849
3484.75	157.177
3486.82	145.172
3488.88	147.833
3490.94	152.494
3493.01	149.155
3495.07	141.15
3497.13	147.144
3499.19	155.805
3501.25	147.8
3503.31	151.794
3505.37	141.122
3507.43	150.45
3509.48	147.778
3511.54	147.772
3513.59	150.433
3515.65	156.428
3517.7	147.755
3519.76	152.417
3521.81	147.078
3523.86	147.072
3525.92	149.067
3527.97	149.061
3530.02	151.722
3532.07	151.05
3534.12	151.711
3536.16	161.039
3538.21	149.034
3540.26	159.028
3542.31	149.689
3544.35	147.684
3546.4	147.678
3548.44	149.006
3550.49	149.667
3552.53	155.662
3554.57	147.656
3556.61	150.317
3558.65	152.312
3560.69	150.306
3562.73	155.634
3564.77	152.295
3566.81	152.956
3568.85	150.951
3570.89	150.945
3572.92	152.94
3574.96	140.267
3576.99	155.595
3579.03	152.923
3581.06	156.251
3583.1	154.912
3585.13	144.906
3587.16	152.234
3589.19	160.895
3591.22	147.557
3593.25	163.551
3595.28	156.212
3597.31	149.54
3599.34	148.868
3601.36	156.862
3603.39	139.523
3605.42	150.185
3607.44	155.512
3609.47	156.173
3611.49	144.835
3613.51	152.829
3615.53	154.824
3617.56	154.151
3619.58	161.479
3621.6	162.14
3623.62	155.468
3625.64	153.463
3627.66	152.79
3629.67	147.452
3631.69	146.113
3633.71	164.774
3635.72	150.102
3637.74	159.429
3639.75	156.091
3641.77	152.085
3643.78	151.413
3645.79	158.741
3647.8	164.069
3649.82	152.73
3651.83	154.724
3653.84	159.385
3655.85	158.713
3657.85	155.374
3659.86	146.035
3661.87	149.363
3663.88	164.024
3665.88	148.685
3667.89	155.347
3669.89	154.008
3671.9	162.669
3673.9	161.997
3675.9	160.658
3677.9	161.986
3679.91	165.98
3681.91	160.641
3683.91	170.636
3685.91	161.964
3687.9	147.291
3689.9	143.286
3691.9	163.28
3693.9	157.941
3695.89	155.269
3697.89	161.264
3699.88	161.925
3701.88	161.919
3703.87	156.581
3705.86	157.242
3707.86	155.903
3709.85	154.564
3711.84	155.225
3713.83	159.886
3715.82	160.547
3717.81	167.875
3719.8	154.536
3721.78	165.197
3723.77	168.525
3725.76	170.52
3727.74	161.181
3729.73	163.175
3731.71	165.17
3733.7	165.164
3735.68	164.492
3737.66	167.82
3739.64	154.481
3741.62	163.809
3743.61	174.47
3745.58	172.464
3747.56	152.459
3749.54	158.453
3751.52	165.781
3753.5	158.442
3755.47	155.77
3757.45	163.098
3759.43	173.092
3761.4	159.754
3763.37	165.081
3765.35	153.743
3767.32	158.404
3769.29	163.065
3771.26	167.726
3773.24	155.054
3775.21	159.715
3777.17	156.376
3779.14	153.704
3781.11	161.032
3783.08	165.693
3785.05	157.021
3787.01	163.682
3788.98	154.343
3790.94	172.337
3792.91	172.999
3794.87	159.66
3796.83	161.654
3798.8	164.982
3800.76	153.643
3802.72	157.638
3804.68	152.965
3806.64	161.627
3808.6	156.954
3810.56	153.616
3812.51	161.61
3814.47	160.938
3816.43	164.266
3818.38	160.927
3820.34	170.255
3822.29	158.916
3824.25	159.577
3826.2	160.905
3828.16	161.566
3830.11	157.56
3832.06	157.555
3834.01	152.883
3835.96	159.544
3837.91	166.205
3839.86	154.866
3841.81	157.527
3843.75	159.522
3845.7	157.516
3847.65	156.844
3849.59	164.172
3851.54	158.833
3853.48	158.161
3855.43	170.155
3857.37	167.483
3859.31	152.811
3861.25	158.139
3863.2	158.133
3865.14	161.461
3867.08	164.789
3869.01	162.116
3870.95	166.111
3872.89	163.439
3874.83	162.767
3876.77	163.428
3878.7	168.089
3880.64	159.417
3882.57	166.744
3884.51	165.406
3886.44	161.4
3888.37	152.061
3890.31	154.056
3892.24	163.384
3894.17	157.378
3896.1	166.039
3898.03	161.367
3899.96	148.695
3901.89	150.689
3903.81	158.017
3905.74	163.345
3907.67	160.673
3909.59	156
3911.52	159.995
3913.44	161.323
3915.37	157.984
3917.29	160.645
3919.21	159.306
3921.14	165.967
3923.06	161.295
3924.98	159.956
3926.9	156.617
3928.82	155.945
3930.74	160.606
3932.66	173.934
3934.57	165.929
3936.49	154.59
3938.41	159.251
3940.32	160.579
3942.24	161.24
3944.15	161.901
3946.07	147.229
3947.98	165.89
3949.89	155.884
3951.8	163.879
3953.72	166.54
3955.63	164.535
3957.54	167.196
3959.45	169.857
3961.36	161.851
3963.26	160.512
3965.17	157.84
3967.08	164.501
3968.98	157.163
3970.89	163.824
3972.79	158.485
3974.7	163.813
3976.6	156.474
3978.51	157.135
3980.41	159.129
3982.31	167.124
3984.21	145.785
3986.11	160.446
3988.01	169.107
3989.91	159.768
3991.81	153.096
3993.71	171.757
3995.61	161.752
3997.51	159.08
3999.4	165.741
