#Acq. time (s)=	3
#Accumulations=	4
#Range (cm-¹)=	60...4000
#Windows=	2
#Auto scanning=	Off
#Autofocus=	Off
#AutoExposure=	Off
#Spike filter=	Multiple accum.
#Delay time (s)=	0
#Binning=	1
#Readout mode=	Signal
#DeNoise=	Off
#ICS correction=	Off
#Dark correction=	Off
#Inst. Process=	Off
#Detector Gain=	Best Dynamic Range
#Detector ADC=	45 kHz       
#Detector temperature (°C)=	-60.1
#Instrument=	XploRA Plus
#Detector=	Syncerity OE
#Objective=	x50_VIS_LWD
#Grating=	1200 (750nm)
#Filter=	10%
#Laser=	532nm_Edge
#Slit (µm)=	100 
#Hole (µm)=	300 
#Temperature=	0
#StageXY=	75x50mm Scan+
#StageZ=	Z motor
#X (µm)=	0
#Y (µm)=	0
#Z (µm)=	-0.2
#Full time(s)=	34
#Project=	
#Sample=	
#Site=	
#Title=	moissanite_14_31_15_2026_04_01_4_3 s_532nm_Edge_1200 (750nm)_x50_VIS_LWD_100 µm_300 µm_10%
#Remark=	
#Date=	01.04.2026 14:31
#Acquired=	01.04.2026 14:31:23
#AxisType[0]=Intens
#AxisUnit[0]=Cnt
#AxisType[1]=Spectr
#AxisUnit[1]=1/cm
62.8738	367
66.1253	383.667
69.3736	404.333
72.6208	395.667
75.869	408.333
79.1139	403
82.3577	396.333
85.6003	410.333
88.844	422.333
92.0844	416.333
95.3237	433.667
98.5619	410.333
101.799	415
105.035	405.667
108.27	409
111.503	405
114.736	375.667
117.967	369.667
121.196	374.333
124.425	383.667
127.653	367
130.88	370.333
134.104	366.333
137.328	358.333
140.552	376.333
143.773	345.667
146.994	376.333
150.212	362.333
153.431	367.667
156.647	367
159.862	367.667
163.078	357
166.291	367.667
169.502	371
172.713	366.333
175.924	356.333
179.132	355.667
182.339	372.333
185.545	375.667
188.75	369.667
191.954	397
195.157	581.667
198.358	623.667
201.559	1933.67
204.758	2954.33
207.954	1888.33
211.152	1465
214.348	731
217.543	381.667
220.734	371
223.927	368.333
227.117	382.333
230.307	381
233.495	386.333
236.683	391
239.868	372.333
243.055	395
246.238	388.333
249.42	395.667
252.603	376.333
255.782	387.667
258.961	401
262.139	580.333
265.315	973
268.49	749
271.665	639.667
274.838	517
278.01	399
281.181	387
284.351	385
287.52	407.667
290.688	403
293.852	405.667
297.018	393.667
300.183	401
303.344	408.333
306.506	401
309.665	415.667
312.826	415
315.983	411.667
319.141	412.333
322.296	404.333
325.45	411
328.604	427.667
331.756	413
334.907	417
338.056	411
341.205	401.667
344.352	418.333
347.498	411
350.643	423.667
353.788	418.333
356.931	419.667
360.073	427
363.214	433
366.353	438.333
369.49	437
372.628	445
375.765	430.333
378.898	451
382.033	449.667
385.164	443.667
388.296	462.333
391.426	459
394.556	459
397.683	471
400.809	458.333
403.936	463.667
407.06	467.667
410.183	462.333
413.305	465.667
416.426	476.333
419.545	472.333
422.664	464.333
425.781	467.667
428.898	467.667
432.013	477.667
435.128	479
438.239	469
441.351	465
444.463	489.667
447.571	485
450.68	498.333
453.786	507
456.893	491.667
459.997	501
463.102	479
466.204	499
469.305	499.667
472.406	493.667
475.505	502.333
478.603	512.333
481.699	514.333
484.795	511.667
487.889	519.667
490.983	493.667
494.075	506.333
497.166	510.333
500.257	497.667
503.346	515
506.434	507
509.519	510.333
512.606	519
515.691	527.667
518.773	522.333
521.856	549
524.936	534.333
528.017	539.667
531.094	559.667
534.171	581.667
537.247	569
540.324	583.667
543.398	588.333
546.47	563.667
549.542	600.333
552.613	574.333
555.682	583
558.751	587.667
561.818	573
564.885	587
567.95	600.333
571.013	589
574.076	591
577.138	607
580.198	603.667
583.258	597.667
586.315	635
589.374	635.667
592.429	640.333
595.485	624.333
598.538	627.667
601.59	647
604.643	657.667
607.693	860.333
610.743	939.667
613.791	842.333
616.838	794.333
619.884	717.667
622.929	654.333
625.973	680.333
629.013	690.333
632.055	680.333
635.096	687
638.136	683.667
641.173	675
644.211	670.333
647.246	642.333
650.282	645.667
653.314	641
656.348	635
659.379	652.333
662.409	649
665.437	641
668.465	645
671.494	638.333
674.52	649.667
677.544	645.667
680.568	659
683.589	653.667
686.61	657
689.631	667
692.651	669.667
695.669	676.333
698.685	675.667
701.702	695
704.715	719
707.73	732.333
710.742	723.667
713.754	725
716.764	739.667
719.772	743
722.78	787.667
725.789	778.333
728.794	780.333
731.799	775
734.802	789
737.805	814.333
740.807	842.333
743.807	868.333
746.805	917.667
749.804	956.333
752.801	999.667
755.796	1057.67
758.792	1172.33
761.786	1277.67
764.778	1553.67
767.769	2250.33
770.76	4758.33
773.749	17815.7
776.737	32229.7
779.725	24482.3
782.711	17441.7
785.696	9307.67
788.68	3289
791.662	3549.67
794.644	5250.33
797.625	6631.67
800.605	4992.33
803.582	3351
806.559	2003.67
809.536	1034.33
812.51	837.667
815.485	783
818.457	759.667
821.43	735.667
824.4	719.667
827.369	705
830.339	699.667
833.306	692.333
836.272	689
839.237	687.667
842.201	697
845.164	703
848.126	683.667
851.087	698.333
854.047	678.333
857.007	695.667
859.963	675.667
862.92	695.667
865.876	686.333
868.83	690.333
871.784	672.333
874.735	683.667
877.686	702.333
880.637	671
883.586	701
886.533	699
889.48	678.333
892.425	713
895.37	701.667
898.313	704.333
901.256	705.667
904.198	697
907.138	694.333
910.078	701.667
913.015	719.667
915.953	713.667
918.888	722.333
921.824	733.667
924.757	720.333
927.691	745.667
930.622	727.667
933.552	738.333
936.481	766.333
939.411	778.333
942.338	783
945.264	820.333
948.19	873.667
951.114	941
954.035	1085
956.958	1479.67
959.879	2764.33
962.8	7287.67
965.717	12255.7
968.636	10820.3
971.552	7995.67
974.468	4609.67
977.382	2031
980.295	1251.67
983.209	1008.33
986.12	890.333
989.03	805.667
991.939	793
994.847	781
997.754	741.667
1000.66	738.333
1003.57	734.333
1006.47	704.333
1009.37	713
1012.27	717.667
1015.17	712.333
1018.07	696.333
1020.97	700.333
1023.87	697
1026.77	712.333
1029.66	707
1032.56	701.667
1035.45	710.333
1038.34	704.333
1041.23	715
1044.12	731.667
1047.01	729
1049.9	719.667
1052.78	747
1055.67	737
1058.56	755
1061.44	775
1064.32	789
1067.2	782.649
1070.08	794.964
1072.96	821.947
1075.84	816.262
1078.72	825.244
1081.6	807.56
1084.47	828.542
1087.35	813.524
1090.22	832.506
1093.09	824.155
1095.96	810.471
1098.83	833.453
1101.7	835.769
1104.57	826.751
1107.43	822.4
1110.3	842.048
1113.16	845.697
1116.03	853.346
1118.89	869.662
1121.75	876.644
1124.61	854.293
1127.47	860.608
1130.33	860.257
1133.19	830.573
1136.04	866.222
1138.9	837.204
1141.75	818.853
1144.61	835.168
1147.46	840.817
1150.31	831.799
1153.16	830.781
1156.01	839.764
1158.86	825.412
1161.7	829.728
1164.55	794.044
1167.39	797.692
1170.24	808.675
1173.08	806.99
1175.92	787.306
1178.76	792.288
1181.6	786.603
1184.44	770.919
1187.28	777.234
1190.12	774.883
1192.95	793.865
1195.79	791.514
1198.62	802.497
1201.45	799.479
1204.28	789.794
1207.11	788.11
1209.94	773.092
1212.77	780.741
1215.6	771.723
1218.42	780.039
1221.25	754.354
1224.07	774.67
1226.9	773.652
1229.72	767.967
1232.54	756.95
1235.36	745.265
1238.18	753.581
1241	744.563
1243.81	750.878
1246.63	757.194
1249.44	760.176
1252.26	749.825
1255.07	761.474
1257.88	743.123
1260.69	738.105
1263.5	717.754
1266.31	746.736
1269.12	753.718
1271.92	727.367
1274.73	723.016
1277.53	755.998
1280.34	737.647
1283.14	753.296
1285.94	736.278
1288.74	724.593
1291.54	750.909
1294.34	743.225
1297.14	755.54
1299.93	762.522
1302.73	785.504
1305.52	772.487
1308.31	775.469
1311.11	758.451
1313.9	758.767
1316.69	781.749
1319.48	750.731
1322.26	749.713
1325.05	770.029
1327.84	753.678
1330.62	753.326
1333.41	746.309
1336.19	744.624
1338.97	747.606
1341.75	752.589
1344.53	764.904
1347.31	727.22
1350.09	725.535
1352.87	738.517
1355.64	735.5
1358.42	743.148
1361.19	743.464
1363.96	743.779
1366.74	746.762
1369.51	745.744
1372.28	733.393
1375.04	761.042
1377.81	760.024
1380.58	755.006
1383.34	765.321
1386.11	754.97
1388.87	755.286
1391.63	780.935
1394.4	782.584
1397.16	779.566
1399.92	798.548
1402.67	789.53
1405.43	800.512
1408.19	773.495
1410.95	803.143
1413.7	766.126
1416.45	792.441
1419.21	780.757
1421.96	785.072
1424.71	798.721
1427.46	792.37
1430.21	787.352
1432.95	781.668
1435.7	775.983
1438.45	802.299
1441.19	777.281
1443.93	774.263
1446.68	771.912
1449.42	778.894
1452.16	774.543
1454.9	738.192
1457.64	761.841
1460.37	761.49
1463.11	757.138
1465.85	753.454
1468.58	764.436
1471.31	810.085
1474.05	853.734
1476.78	914.716
1479.51	964.365
1482.24	942.68
1484.97	960.329
1487.69	971.312
1490.42	989.627
1493.15	987.943
1495.87	1033.59
1498.59	1029.91
1501.32	1085.56
1504.04	1180.54
1506.76	1268.85
1509.48	1348.5
1512.2	1422.82
1514.91	1515.8
1517.63	1585.45
1520.35	1575.1
1523.06	1570.08
1525.77	1591.06
1528.49	1548.04
1531.2	1494.36
1533.91	1484.01
1536.62	1466.99
1539.33	1460.64
1542.04	1459.62
1544.74	1467.27
1547.45	1399.59
1550.15	1331.24
1552.85	1285.55
1555.56	1200.53
1558.26	1170.85
1560.96	1120.5
1563.66	1102.81
1566.36	1084.46
1569.06	1085.44
1571.75	1080.43
1574.45	1084.08
1577.14	1072.39
1579.84	1068.71
1582.53	1069.69
1585.22	1040
1587.91	1018.99
1590.6	1029.97
1593.29	998.284
1595.98	979.266
1598.67	988.248
1601.35	980.564
1604.04	994.213
1606.72	1004.53
1609.4	1036.84
1612.09	1023.16
1614.77	1052.81
1617.45	1055.12
1620.13	1062.11
1622.8	1083.09
1625.48	1040.74
1628.16	1042.39
1630.83	1008.7
1633.51	985.683
1636.18	974.666
1638.85	964.981
1641.52	946.63
1644.19	945.612
1646.86	939.928
1649.53	950.91
1652.2	924.559
1654.86	945.541
1657.53	944.523
1660.2	911.505
1662.86	919.154
1665.52	902.136
1668.18	904.452
1670.84	925.434
1673.5	957.083
1676.16	971.399
1678.82	983.047
1681.47	1018.03
1684.13	1057.68
1686.79	1094.66
1689.44	1132.98
1692.09	1154.63
1694.74	1151.61
1697.39	1124.59
1700.04	1098.24
1702.69	1145.22
1705.34	1144.2
1707.99	1170.52
1710.64	1205.5
1713.28	1197.15
1715.92	1202.8
1718.57	1191.78
1721.21	1162.76
1723.85	1113.08
1726.49	1088.73
1729.13	1030.38
1731.77	1021.36
1734.41	1005.67
1737.04	985.322
1739.68	976.305
1742.31	1015.95
1744.94	978.269
1747.58	962.585
1750.21	966.9
1752.84	960.549
1755.47	938.864
1758.1	931.847
1760.73	948.162
1763.35	917.144
1765.98	961.46
1768.6	932.442
1771.23	926.091
1773.85	921.74
1776.47	946.722
1779.09	917.038
1781.71	917.353
1784.33	938.335
1786.95	948.651
1789.57	914.966
1792.18	951.282
1794.8	885.597
1797.41	921.913
1800.03	909.562
1802.64	907.877
1805.25	935.526
1807.86	915.842
1810.47	901.491
1813.08	897.139
1815.69	910.122
1818.29	925.77
1820.9	908.086
1823.5	931.068
1826.11	918.05
1828.71	911.033
1831.31	908.015
1833.91	906.33
1836.51	919.313
1839.11	899.628
1841.71	910.61
1844.31	909.592
1846.9	921.241
1849.5	918.89
1852.09	926.539
1854.69	905.521
1857.28	909.17
1859.87	924.819
1862.46	885.801
1865.05	924.117
1867.64	925.766
1870.23	910.081
1872.81	912.397
1875.4	932.712
1877.98	907.694
1880.57	926.676
1883.15	904.325
1885.73	923.308
1888.31	921.623
1890.89	935.939
1893.47	950.254
1896.05	932.57
1898.63	918.219
1901.2	929.201
1903.78	920.85
1906.35	935.165
1908.93	911.481
1911.5	926.463
1914.07	900.112
1916.64	917.761
1919.21	922.743
1921.78	871.058
1924.35	893.374
1926.92	883.023
1929.48	918.672
1932.05	878.32
1934.61	859.303
1937.17	865.618
1939.74	823.934
1942.3	838.916
1944.86	815.231
1947.42	832.214
1949.98	808.529
1952.53	810.845
1955.09	820.494
1957.65	807.476
1960.2	785.125
1962.76	820.107
1965.31	794.422
1967.86	792.071
1970.41	826.387
1972.96	794.702
1975.51	821.684
1978.06	807.333
1980.61	810.982
1983.15	823.964
1985.7	805.613
1988.24	825.262
1990.79	836.244
1993.33	825.227
1995.87	818.209
1998.41	825.857
2000.95	851.506
2003.49	841.822
2006.03	803.471
2008.57	822.453
2011.1	810.102
2013.64	853.084
2016.17	835.4
2018.71	823.715
2021.24	829.364
2023.77	836.346
2026.3	839.328
2028.83	832.977
2031.36	833.959
2033.89	831.608
2036.41	836.59
2038.94	843.573
2041.47	855.888
2043.99	823.537
2046.51	839.186
2049.04	832.835
2051.56	831.817
2054.08	863.466
2056.6	840.448
2059.12	856.764
2061.63	851.746
2064.15	862.728
2066.67	871.044
2069.18	861.359
2071.7	859.008
2074.21	865.99
2076.72	871.639
2079.23	895.288
2081.74	841.603
2084.25	877.919
2086.76	877.568
2089.27	904.55
2091.78	877.532
2094.28	865.848
2096.79	892.163
2099.29	882.479
2101.8	874.794
2104.3	912.443
2106.8	921.425
2109.3	915.074
2111.8	921.39
2114.3	907.705
2116.79	911.354
2119.29	920.336
2121.79	918.652
2124.28	919.634
2126.78	921.95
2129.27	918.265
2131.76	921.247
2134.25	926.896
2136.74	941.212
2139.23	964.194
2141.72	906.509
2144.21	932.158
2146.7	935.807
2149.18	967.456
2151.67	939.772
2154.15	903.42
2156.63	943.069
2159.12	929.385
2161.6	951.7
2164.08	935.349
2166.56	954.998
2169.04	955.98
2171.51	958.962
2173.99	959.278
2176.47	944.927
2178.94	947.909
2181.42	968.891
2183.89	973.207
2186.36	953.522
2188.83	965.838
2191.3	953.487
2193.77	944.469
2196.24	995.451
2198.71	993.767
2201.18	988.082
2203.64	980.398
2206.11	988.046
2208.57	1015.7
2211.04	1001.34
2213.5	1017.66
2215.96	1019.31
2218.42	1017.62
2220.88	1033.94
2223.34	1012.92
2225.8	1015.24
2228.25	1060.22
2230.71	1051.87
2233.17	1054.85
2235.62	1033.17
2238.07	1058.81
2240.52	1087.13
2242.98	1094.78
2245.43	1067.76
2247.88	1107.41
2250.33	1119.06
2252.77	1117.37
2255.22	1095.69
2257.67	1094.01
2260.11	1130.32
2262.56	1109.97
2265	1114.95
2267.44	1141.27
2269.89	1150.92
2272.33	1125.9
2274.77	1156.88
2277.21	1137.86
2279.65	1154.18
2282.08	1139.83
2284.52	1130.81
2286.96	1131.79
2289.39	1166.77
2291.82	1179.09
2294.26	1182.07
2296.69	1144.39
2299.12	1160.7
2301.55	1163.69
2303.98	1160
2306.41	1175.65
2308.83	1144.63
2311.26	1190.28
2313.69	1175.93
2316.11	1164.91
2318.54	1178.56
2320.96	1156.88
2323.38	1179.86
2325.8	1181.51
2328.22	1179.16
2330.65	1202.14
2333.06	1189.12
2335.48	1203.44
2337.9	1192.42
2340.31	1204.07
2342.73	1211.72
2345.14	1180.03
2347.56	1211.68
2349.97	1236
2352.38	1202.31
2354.79	1237.29
2357.2	1232.94
2359.61	1237.92
2362.02	1236.91
2364.43	1239.22
2366.83	1252.2
2369.24	1249.85
2371.64	1234.84
2374.05	1278.48
2376.45	1270.13
2378.85	1287.78
2381.26	1283.43
2383.65	1268.41
2386.06	1308.06
2388.45	1317.04
2390.85	1294.03
2393.25	1314.34
2395.64	1321.32
2398.04	1330.97
2400.43	1323.29
2402.83	1319.6
2405.22	1313.92
2407.61	1319.57
2410	1332.55
2412.39	1322.2
2414.78	1315.85
2417.17	1329.5
2419.56	1321.15
2421.94	1335.46
2424.33	1357.78
2426.71	1328.76
2429.1	1335.08
2431.48	1305.39
2433.86	1301.04
2436.24	1319.36
2438.62	1318.34
2441	1329.99
2443.38	1334.3
2445.76	1353.95
2448.14	1336.27
2450.51	1331.25
2452.89	1313.56
2455.26	1345.21
2457.63	1346.19
2460.01	1347.18
2462.38	1332.83
2464.75	1333.14
2467.12	1357.46
2469.49	1354.44
2471.86	1316.09
2474.22	1319.74
2476.59	1360.72
2478.96	1352.37
2481.32	1320.68
2483.69	1333
2486.05	1321.31
2488.41	1320.96
2490.77	1330.61
2493.13	1341.59
2495.49	1362.58
2497.85	1354.89
2500.21	1361.21
2502.56	1359.52
2504.92	1350.51
2507.28	1341.49
2509.63	1350.47
2511.99	1355.45
2514.34	1363.77
2516.69	1344.08
2519.04	1331.73
2521.39	1351.38
2523.74	1335.03
2526.09	1369.35
2528.44	1334.99
2530.78	1337.31
2533.13	1329.63
2535.47	1330.61
2537.82	1358.26
2540.16	1316.57
2542.5	1334.89
2544.85	1330.54
2547.19	1367.52
2549.53	1331.83
2551.87	1346.15
2554.2	1341.8
2556.54	1323.45
2558.88	1330.43
2561.21	1347.41
2563.55	1345.27
2565.88	1359.99
2568.21	1335.78
2570.55	1347.15
2572.88	1331.4
2575.21	1347.75
2577.54	1315.35
2579.87	1340.58
2582.19	1325.89
2584.52	1347.36
2586.85	1323.16
2589.17	1353.99
2591.5	1346.94
2593.82	1324.61
2596.15	1324.23
2598.47	1316.9
2600.79	1295.44
2603.11	1312.95
2605.43	1300.63
2607.75	1290.9
2610.07	1327.7
2612.38	1310.23
2614.7	1295.01
2617.01	1319.62
2619.33	1288.76
2621.64	1295.46
2623.96	1307.09
2626.27	1285.94
2628.58	1310.39
2630.89	1284.99
2633.2	1318.94
2635.51	1289.43
2637.81	1271.25
2640.12	1301.1
2642.43	1277.98
2644.73	1277.89
2647.04	1278.43
2649.34	1299.16
2651.64	1284.48
2653.94	1270.9
2656.25	1297.99
2658.55	1271.11
2660.85	1263.63
2663.14	1278.19
2665.44	1261.16
2667.74	1266.18
2670.03	1272.89
2672.33	1270.45
2674.62	1257.04
2676.92	1270.22
2679.21	1276.75
2681.5	1279.66
2683.79	1260.15
2686.08	1264.95
2688.37	1255.44
2690.66	1244.52
2692.95	1251.87
2695.24	1243.03
2697.52	1249.65
2699.81	1253.17
2702.09	1252.22
2704.37	1247.78
2706.66	1266.6
2708.94	1256.99
2711.22	1258.63
2713.5	1245.31
2715.78	1243.13
2718.06	1242.93
2720.33	1244.98
2722.61	1251.2
2724.89	1261.35
2727.16	1266.83
2729.44	1262.79
2731.71	1251.16
2733.98	1243.41
2736.26	1232.32
2738.53	1246.76
2740.8	1244.78
2743.07	1240.32
2745.33	1248.61
2747.6	1231.48
2749.87	1234.78
2752.14	1247.1
2754.4	1248.95
2756.66	1242.49
2758.93	1233.56
2761.19	1230.32
2763.45	1240.28
2765.72	1237.88
2767.98	1240.45
2770.23	1234.85
2772.49	1242.37
2774.75	1231.06
2777.01	1225.73
2779.26	1224.19
2781.52	1225.95
2783.77	1232.24
2786.03	1229.83
2788.28	1229.66
2790.53	1248.26
2792.78	1220.53
2795.03	1228.7
2797.28	1232.36
2797.45	1232.46
2799.74	1185.54
2802.03	1199.3
2804.32	1232.39
2806.6	1255.48
2808.89	1217.23
2811.17	1230.32
2813.46	1236.08
2815.74	1244.5
2818.02	1226.25
2820.3	1190.68
2822.58	1227.77
2824.86	1215.52
2827.14	1209.28
2829.42	1217.7
2831.7	1226.79
2833.98	1220.54
2836.25	1203.63
2838.53	1220.05
2840.8	1214.47
2843.08	1208.9
2845.35	1233.32
2847.62	1223.74
2849.9	1234.83
2852.17	1247.25
2854.44	1246.34
2856.71	1234.76
2858.98	1237.85
2861.24	1266.94
2863.51	1258.69
2865.78	1249.12
2868.04	1244.87
2870.31	1249.96
2872.57	1253.72
2874.84	1259.47
2877.1	1265.89
2879.36	1264.98
2881.62	1275.4
2883.89	1251.16
2886.15	1290.25
2888.41	1282.67
2890.66	1260.43
2892.92	1286.18
2895.18	1275.27
2897.44	1261.03
2899.69	1281.45
2901.95	1277.87
2904.2	1276.96
2906.46	1260.71
2908.71	1267.14
2910.96	1282.89
2913.21	1257.31
2915.46	1275.07
2917.71	1281.49
2919.96	1267.25
2922.21	1291
2924.46	1292.09
2926.71	1259.18
2928.95	1278.27
2931.2	1298.69
2933.44	1291.78
2935.68	1308.2
2937.93	1281.29
2940.17	1313.71
2942.41	1280.8
2944.65	1261.89
2946.89	1276.98
2949.13	1272.07
2951.37	1268.49
2953.61	1274.24
2955.85	1259.33
2958.09	1271.09
2960.32	1241.51
2962.56	1243.93
2964.79	1233.02
2967.03	1252.11
2969.26	1247.2
2971.49	1238.29
2973.72	1257.37
2975.95	1256.46
2978.18	1258.88
2980.41	1251.31
2982.64	1245.06
2984.87	1239.48
2987.1	1260.57
2989.33	1236.99
2991.55	1258.08
2993.78	1245.84
2996	1252.93
2998.22	1236.68
3000.45	1199.11
3002.67	1218.19
3004.89	1229.28
3007.11	1233.04
3009.33	1226.79
3011.55	1234.55
3013.77	1220.3
3015.99	1240.73
3018.21	1210.48
3020.42	1225.57
3022.64	1200.66
3024.85	1210.41
3027.07	1219.5
3029.28	1211.26
3031.49	1223.01
3033.71	1206.1
3035.92	1183.19
3038.13	1211.61
3040.34	1208.7
3042.55	1217.12
3044.76	1207.55
3046.97	1194.63
3049.17	1234.39
3051.38	1204.15
3053.58	1205.23
3055.79	1201.66
3058	1211.41
3060.2	1205.17
3062.4	1200.26
3064.6	1187.34
3066.8	1187.1
3069.01	1209.52
3071.21	1211.28
3073.41	1202.37
3075.6	1190.79
3077.8	1201.88
3080	1236.3
3082.2	1203.39
3084.39	1217.81
3086.59	1215.56
3088.78	1198.65
3090.97	1209.08
3093.17	1211.5
3095.36	1209.25
3097.55	1201.01
3099.74	1156.1
3101.93	1181.19
3104.12	1208.94
3106.31	1214.7
3108.5	1201.12
3110.68	1189.54
3112.87	1214.63
3115.06	1226.38
3117.24	1202.81
3119.43	1207.89
3121.61	1184.98
3123.79	1182.07
3125.98	1196.49
3128.16	1196.25
3130.34	1172
3132.52	1203.76
3134.7	1190.85
3136.88	1210.6
3139.05	1181.69
3141.23	1202.78
3143.41	1206.54
3145.58	1196.29
3147.76	1193.38
3149.93	1201.14
3152.11	1177.56
3154.28	1179.98
3156.45	1190.4
3158.63	1175.49
3160.8	1199.25
3162.97	1186.34
3165.14	1194.09
3167.3	1177.18
3169.47	1186.27
3171.64	1182.02
3173.81	1195.11
3175.97	1178.87
3178.14	1186.62
3180.3	1165.04
3182.47	1202.8
3184.63	1197.22
3186.79	1188.98
3188.95	1191.4
3191.11	1179.15
3193.28	1154.24
3195.43	1206
3197.59	1191.75
3199.75	1185.51
3201.91	1153.93
3204.07	1179.69
3206.22	1167.44
3208.38	1185.2
3210.53	1178.95
3212.69	1170.04
3214.84	1179.13
3216.99	1175.55
3219.14	1177.31
3221.3	1171.73
3223.45	1179.49
3225.6	1156.57
3227.75	1180.33
3229.89	1162.75
3232.04	1200.51
3234.19	1170.26
3236.34	1200.02
3238.48	1181.11
3240.62	1184.86
3242.77	1175.28
3244.91	1137.71
3247.06	1168.13
3249.2	1183.88
3251.34	1161.64
3253.48	1166.73
3255.62	1194.48
3257.76	1176.9
3259.9	1179.33
3262.04	1159.75
3264.17	1176.17
3266.31	1168.59
3268.45	1195.68
3270.58	1211.44
3272.72	1190.53
3274.85	1178.95
3276.98	1172.04
3279.12	1184.46
3281.25	1206.21
3283.38	1159.97
3285.51	1182.39
3287.64	1155.48
3289.77	1193.9
3291.89	1189.66
3294.02	1182.08
3296.15	1190.5
3298.28	1177.59
3300.4	1175.34
3302.53	1199.77
3304.65	1184.19
3306.77	1180.61
3308.9	1190.37
3311.02	1198.79
3313.14	1192.54
3315.26	1197.63
3317.38	1180.05
3319.5	1173.81
3321.62	1192.9
3323.74	1195.99
3325.85	1177.74
3327.97	1182.16
3330.08	1198.59
3332.2	1208.34
3334.31	1190.76
3336.43	1165.85
3338.54	1181.61
3340.65	1180.03
3342.77	1190.45
3344.88	1197.54
3346.99	1177.96
3349.1	1207.72
3351.21	1221.47
3353.31	1195.9
3355.42	1182.98
3357.53	1172.74
3359.63	1179.83
3361.74	1220.25
3363.84	1187.34
3365.95	1190.43
3368.05	1210.85
3370.15	1196.61
3372.26	1197.69
3374.36	1205.45
3376.46	1190.54
3378.56	1182.96
3380.66	1176.72
3382.76	1173.14
3384.85	1187.56
3386.95	1201.31
3389.05	1194.4
3391.14	1194.83
3393.24	1207.91
3395.33	1201.67
3397.43	1194.76
3399.52	1180.51
3401.61	1234.94
3403.7	1189.36
3405.79	1178.45
3407.89	1204.87
3409.98	1203.96
3412.06	1195.71
3414.15	1210.13
3416.24	1207.89
3418.33	1184.31
3420.41	1206.07
3422.5	1186.49
3424.58	1218.91
3426.67	1174.67
3428.75	1212.42
3430.83	1202.18
3432.92	1208.6
3435	1189.69
3437.08	1215.44
3439.16	1197.2
3441.24	1207.62
3443.32	1190.71
3445.4	1211.13
3447.47	1176.89
3449.55	1198.64
3451.63	1207.73
3453.7	1183.49
3455.78	1223.91
3457.85	1216.33
3459.92	1203.42
3462	1222.51
3464.07	1209.6
3466.14	1222.02
3468.21	1216.44
3470.28	1215.53
3472.35	1221.28
3474.42	1219.71
3476.49	1172.13
3478.55	1185.22
3480.62	1205.64
3482.69	1196.06
3484.75	1225.82
3486.82	1220.91
3488.88	1209.99
3490.94	1217.75
3493.01	1182.84
3495.07	1199.93
3497.13	1212.35
3499.19	1197.44
3501.25	1193.19
3503.31	1207.61
3505.37	1198.04
3507.43	1239.79
3509.48	1204.88
3511.54	1239.97
3513.59	1213.72
3515.65	1210.15
3517.7	1223.9
3519.76	1227.66
3521.81	1228.08
3523.86	1225.83
3525.92	1216.26
3527.97	1214.68
3530.02	1207.77
3532.07	1238.19
3534.12	1249.28
3536.16	1191.03
3538.21	1245.46
3540.26	1219.21
3542.31	1260.3
3544.35	1242.06
3546.4	1239.81
3548.44	1226.9
3550.49	1221.99
3552.53	1228.41
3554.57	1247.5
3556.61	1237.92
3558.65	1230.34
3560.69	1264.76
3562.73	1233.19
3564.77	1228.94
3566.81	1224.03
3568.85	1260.45
3570.89	1242.87
3572.92	1259.3
3574.96	1223.05
3576.99	1232.81
3579.03	1223.23
3581.06	1246.32
3583.1	1276.74
3585.13	1242.5
3587.16	1223.58
3589.19	1257.34
3591.22	1252.43
3593.25	1228.85
3595.28	1247.27
3597.31	1247.03
3599.34	1247.45
3601.36	1249.21
3603.39	1236.96
3605.42	1237.38
3607.44	1250.47
3609.47	1265.56
3611.49	1273.32
3613.51	1257.74
3615.53	1244.16
3617.56	1251.91
3619.58	1266.34
3621.6	1275.43
3623.62	1257.18
3625.64	1264.94
3627.66	1266.69
3629.67	1267.11
3631.69	1270.87
3633.71	1265.96
3635.72	1280.38
3637.74	1275.47
3639.75	1263.89
3641.77	1270.98
3643.78	1263.4
3645.79	1283.16
3647.8	1298.91
3649.82	1292.67
3651.83	1275.09
3653.84	1276.18
3655.85	1285.27
3657.85	1264.36
3659.86	1301.44
3661.87	1266.53
3663.88	1293.62
3665.88	1296.04
3667.89	1295.13
3669.89	1270.22
3671.9	1269.98
3673.9	1283.06
3675.9	1310.82
3677.9	1309.91
3679.91	1291
3681.91	1296.75
3683.91	1288.51
3685.91	1281.6
3687.9	1307.35
3689.9	1295.77
3691.9	1337.53
3693.9	1302.62
3695.89	1339.04
3697.89	1274.13
3699.88	1321.22
3701.88	1360.31
3703.87	1318.06
3705.86	1335.15
3707.86	1330.24
3709.85	1337.33
3711.84	1329.08
3713.83	1318.84
3715.82	1340.59
3717.81	1341.02
3719.8	1370.77
3721.78	1369.19
3723.77	1384.95
3725.76	1325.37
3727.74	1351.13
3729.73	1356.88
3731.71	1343.3
3733.7	1349.73
3735.68	1336.81
3737.66	1343.24
3739.64	1344.33
3741.62	1314.08
3743.61	1353.84
3745.58	1330.26
3747.56	1325.35
3749.54	1321.1
3751.52	1362.86
3753.5	1328.61
3755.47	1351.03
3757.45	1321.46
3759.43	1339.88
3761.4	1352.97
3763.37	1345.39
3765.35	1343.81
3767.32	1339.57
3769.29	1328.66
3771.26	1317.74
3773.24	1330.83
3775.21	1341.26
3777.17	1327.01
3779.14	1320.1
3781.11	1345.85
3783.08	1356.94
3785.05	1316.03
3787.01	1344.45
3788.98	1318.21
3790.94	1324.63
3792.91	1344.39
3794.87	1352.81
3796.83	1330.56
3798.8	1346.32
3800.76	1348.74
3802.72	1329.16
3804.68	1350.92
3806.64	1330.01
3808.6	1334.43
3810.56	1315.52
3812.51	1343.27
3814.47	1323.7
3816.43	1352.78
3818.38	1333.87
3820.34	1362.96
3822.29	1320.05
3824.25	1335.14
3826.2	1339.56
3828.16	1305.98
3830.11	1346.41
3832.06	1310.16
3834.01	1329.92
3835.96	1317
3837.91	1324.76
3839.86	1299.18
3841.81	1332.27
3843.75	1338.69
3845.7	1314.45
3847.65	1324.2
3849.59	1315.96
3851.54	1319.71
3853.48	1328.8
3855.43	1331.22
3857.37	1333.65
3859.31	1340.74
3861.25	1345.16
3863.2	1316.25
3865.14	1315.33
3867.08	1347.09
3869.01	1315.51
3870.95	1336.6
3872.89	1319.69
3874.83	1296.11
3876.77	1314.53
3878.7	1314.96
3880.64	1328.71
3882.57	1314.47
3884.51	1348.89
3886.44	1354.64
3888.37	1318.4
3890.31	1327.49
3892.24	1293.24
3894.17	1303.67
3896.1	1322.75
3898.03	1311.18
3899.96	1300.93
3901.89	1315.35
3903.81	1327.78
3905.74	1318.2
3907.67	1335.29
3909.59	1305.71
3911.52	1275.46
3913.44	1287.89
3915.37	1273.64
3917.29	1312.73
3919.21	1305.82
3921.14	1324.24
3923.06	1308.66
3924.98	1310.42
3926.9	1314.17
3928.82	1309.26
3930.74	1303.02
3932.66	1277.44
3934.57	1304.53
3936.49	1300.95
3938.41	1285.37
3940.32	1282.46
3942.24	1275.55
3944.15	1307.3
3946.07	1290.39
3947.98	1256.15
3949.89	1295.24
3951.8	1310.33
3953.72	1303.41
3955.63	1288.5
3957.54	1313.59
3959.45	1278.01
3961.36	1303.77
3963.26	1278.19
3965.17	1273.28
3967.08	1281.7
3968.98	1301.46
3970.89	1267.88
3972.79	1298.97
3974.7	1309.39
3976.6	1313.81
3978.51	1281.57
3980.41	1287.99
3982.31	1308.41
3984.21	1276.83
3986.11	1284.59
3988.01	1287.68
3989.91	1278.77
3991.81	1290.52
3993.71	1284.28
3995.61	1297.37
3997.51	1278.45
3999.4	1301.54
