#Acq. time (s)=	60
#Accumulations=	4
#Range (cm-¹)=	60...4000
#Windows=	3
#Auto scanning=	Off
#Autofocus=	Off
#AutoExposure=	Off
#Spike filter=	Multiple accum.
#Delay time (s)=	0
#Binning=	1
#Readout mode=	Signal
#DeNoise=	Off
#ICS correction=	Off
#Dark correction=	Off
#Inst. Process=	Off
#Detector Gain=	Best Dynamic Range
#Detector ADC=	45 kHz       
#Detector temperature (°C)=	-60.1
#Instrument=	XploRA Plus
#Detector=	Syncerity OE
#Objective=	x50_VIS_LWD
#Grating=	1200 (750nm)
#Filter=	50%
#Laser=	638nm_Edge
#Slit (µm)=	100 
#Hole (µm)=	300 
#Temperature=	0
#StageXY=	75x50mm Scan+
#StageZ=	Z motor
#X (µm)=	0
#Y (µm)=	0
#Z (µm)=	43.1
#Full time(mm:ss)=	12:14
#Project=	
#Sample=	
#Site=	
#Title=	OlivinePeridote_14_30_38_2026_03_30_4_60 s_638nm_Edge_1200 (750nm)_x50_VIS_LWD_100 µm_300 µm_50%
#Remark=	
#Date=	30.03.2026 14:31
#Acquired=	30.03.2026 14:31:44
#AxisType[0]=Intens
#AxisUnit[0]=Cnt
#AxisType[1]=Spectr
#AxisUnit[1]=1/cm
62.2295	3594.33
64.3928	3026.2
66.5569	3376.74
68.719	3287.94
70.882	3524.47
73.0428	3533.68
75.2031	2952.88
77.3628	2898.75
79.5219	3281.28
81.6818	3280.48
83.8397	3061.68
85.997	2584.89
88.1522	2482.09
90.3083	2710.62
92.4638	2654.49
94.6187	2572.36
96.773	2535.56
98.9252	2726.76
101.078	2513.96
103.231	2727.83
105.381	2579.7
107.533	2416.24
109.682	2574.1
111.831	2337.31
113.98	2463.84
116.128	2281.71
118.274	2094.24
120.421	2149.45
122.566	2296.65
124.712	2246.52
126.856	2089.72
129	2028.25
131.143	2258.79
133.286	2420.66
135.428	2333.19
137.57	2364.39
139.709	2310.26
141.85	2092.13
143.988	2382
146.127	2353.2
148.264	2111.07
150.402	2085.6
152.538	2253.47
154.674	2253.34
156.81	1994.54
158.944	1971.08
161.078	2300.28
163.211	2052.81
165.343	2097.35
167.475	2247.88
169.606	2376.42
171.737	2024.29
173.866	2073.49
175.995	1948.02
178.124	2182.56
180.253	1830.43
182.379	1900.3
184.506	1840.16
186.631	1803.37
188.756	1883.23
190.881	1893.1
193.004	2267.64
195.127	2064.17
197.251	1925.37
199.373	1963.24
201.494	1937.11
203.614	2025.65
205.734	1838.85
207.853	1851.38
209.971	2041.92
212.089	1912.45
214.206	1842.99
216.323	1870.86
218.438	2048.06
220.554	2003.93
222.668	1987.79
224.783	2037.66
226.895	2078.2
229.007	2066.73
231.12	2082.6
233.231	2081.14
235.341	2182.34
237.451	1852.87
239.56	1904.74
241.669	1839.28
243.777	1759.81
245.884	1731.01
247.991	1766.21
250.096	1756.08
252.202	1853.95
254.307	1786.49
256.41	1812.36
258.514	1906.89
260.616	1811.43
262.719	1795.96
264.82	1805.83
266.92	1747.7
269.021	1866.23
271.12	1786.1
273.219	1799.3
275.317	1920.5
277.414	2015.04
279.511	1837.57
281.607	1824.11
283.701	1771.98
285.797	1817.85
287.891	1819.05
289.984	1960.25
292.077	1845.45
294.17	1827.99
296.261	1857.85
298.351	1861.06
300.442	1915.59
302.531	1953.46
304.62	1930.66
306.708	2122.53
308.795	1910.4
310.882	1965.6
312.968	1980.13
315.054	1971.34
317.139	1995.2
319.224	2203.07
321.308	2211.61
323.39	2109.48
325.473	2188.68
327.553	2235.21
329.635	2257.08
331.715	2296.95
333.794	2167.48
335.874	2022.69
337.952	2027.89
340.03	1958.42
342.107	1941.63
344.183	1951.49
346.259	1918.03
348.334	1758.56
350.409	1695.77
352.483	1816.3
354.557	1786.17
356.628	1670.7
358.701	1629.91
360.771	1749.11
362.842	1872.31
364.912	1739.51
366.982	1752.71
369.05	1758.58
371.118	1757.78
373.185	1712.32
375.251	1753.52
377.317	1811.39
379.383	1802.59
381.448	1699.12
383.512	1698.99
385.576	1689.53
387.639	1725.4
389.7	1737.93
391.762	1628.47
393.822	1646.33
395.883	1616.2
397.942	1644.07
400.001	1657.27
402.06	1641.14
404.117	1702.34
406.174	1710.88
408.23	1790.08
410.286	1749.28
412.341	1636.48
414.396	1747.68
416.45	1798.22
418.502	1752.75
420.554	1832.62
422.607	1793.16
424.657	1879.03
426.708	1941.56
428.758	1998.1
430.808	2061.3
432.856	2006.5
434.904	1981.7
436.951	1934.9
438.997	1743.44
441.043	1707.31
443.089	1671.84
445.133	1616.38
447.178	1658.25
449.222	1587.45
451.263	1564.65
453.306	1570.52
455.348	1493.72
457.388	1581.59
459.429	1581.46
461.468	1550.66
463.507	1600.53
465.545	1569.06
467.584	1616.26
469.621	1536.13
471.657	1591.33
473.693	1571.2
475.727	1601.07
477.761	1564.27
479.796	1570.14
481.829	1550.01
483.861	1561.21
485.893	1614.41
487.924	1608.28
489.955	1740.15
491.985	1644.68
494.014	1765.88
496.044	1715.09
498.072	1773.62
500.099	1826.82
502.126	1782.69
504.152	1775.89
506.178	1627.76
508.201	1568.96
510.226	1555.5
512.25	1620.7
514.272	1547.23
516.295	1601.77
518.316	1578.3
520.338	1550.17
522.358	1529.37
524.378	1581.24
526.396	1616.44
528.416	1590.98
530.434	1626.18
532.451	1636.72
534.467	1704.59
536.483	1809.79
538.499	1969.66
540.514	2183.52
542.527	2354.73
544.541	2309.93
546.553	2219.13
548.566	2093
550.577	1880.2
552.588	1724.07
554.599	1645.27
556.609	1620.47
558.618	1633.67
560.626	1574.87
562.634	1608.08
564.64	1603.94
566.646	1564.48
568.653	1611.68
570.657	1610.22
572.662	1648.75
574.667	1659.95
576.67	1709.15
578.672	1735.69
580.675	1802.22
582.676	1804.76
584.677	1868.63
586.677	1890.5
588.676	1890.36
590.675	1902.23
592.674	1865.43
594.671	1825.3
596.668	1771.84
598.665	1715.04
600.66	1664.24
602.656	1696.78
604.65	1664.64
606.643	1621.18
608.637	1617.05
610.63	1593.58
612.622	1626.78
614.613	1585.99
616.604	1535.85
618.594	1555.06
620.584	1557.59
622.571	1562.13
624.56	1570.66
626.548	1529.2
628.534	1511.73
630.52	1547.6
632.507	1499.47
634.491	1484.67
636.476	1511.21
638.459	1466.41
640.444	1502.94
642.426	1470.14
644.407	1500.68
646.388	1489.21
648.369	1480.42
650.35	1472.95
652.328	1483.49
654.308	1535.35
656.286	1519.22
658.264	1621.76
660.24	1518.96
662.216	1505.49
664.193	1479.36
666.168	1472.56
668.143	1450.43
670.117	1490.3
672.089	1446.84
674.061	1472.04
676.034	1473.91
678.006	1451.11
679.975	1476.98
681.946	1472.84
683.915	1485.38
685.884	1515.25
687.853	1537.78
689.82	1516.32
691.787	1469.52
693.753	1506.05
695.719	1495.26
697.684	1508.46
699.649	1535.66
701.612	1497.53
703.576	1490.73
705.539	1478.6
707.5	1490.47
709.461	1515
711.423	1552.87
713.383	1510.07
715.342	1513.94
717.301	1553.14
719.259	1532.34
721.217	1542.88
723.174	1542.75
725.131	1495.95
727.087	1534.48
729.041	1564.35
730.996	1534.22
732.95	1531.42
734.904	1583.96
736.856	1486.49
738.808	1529.03
740.761	1516.9
742.711	1555.43
744.662	1503.97
746.611	1555.83
748.559	1542.37
750.508	1500.9
752.456	1557.44
754.403	1582.64
756.35	1532.51
758.295	1545.04
760.241	1526.25
762.186	1555.45
764.13	1542.65
766.073	1551.18
768.017	1575.72
769.959	1566.92
771.9	1602.12
773.841	1571.32
775.782	1623.86
777.722	1606.39
779.66	1586.26
781.6	1675.46
783.537	1618.67
785.474	1642.53
787.412	1652.4
789.348	1686.27
791.283	1704.81
793.218	1760.01
795.152	1783.21
797.086	1803.75
799.02	1857.61
800.951	1899.48
802.883	1983.35
804.814	2131.22
806.745	2285.09
808.675	2450.96
810.604	2762.82
812.534	3205.36
814.462	3805.89
816.389	4787.1
818.316	6262.96
820.243	8263.5
822.168	10200
824.093	11184.6
826.018	10930.4
827.941	9619.64
829.865	7765.51
831.787	6106.04
833.709	4975.91
835.632	4329.11
837.552	3751.65
839.473	3534.18
841.392	3398.72
843.311	3357.25
845.229	3406.45
847.147	3649.66
849.065	4140.86
850.981	4832.06
852.897	5629.26
854.812	6189.8
856.727	6303
858.642	6056.2
860.555	5330.07
862.468	4603.94
864.38	3855.8
866.292	3300.34
868.203	2920.21
870.113	2572.08
872.024	2327.94
873.932	2159.15
875.842	2049.68
877.75	1944.88
879.657	1913.42
881.565	1875.29
883.471	1865.16
885.376	1793.02
887.282	1813.56
889.186	1677.43
891.089	1633.96
892.993	1666.5
894.896	1611.7
896.797	1577.57
898.7	1578.1
900.6	1555.97
902.5	1518.51
904.399	1548.37
906.298	1584.91
908.197	1631.44
910.095	1671.31
911.992	1672.51
913.889	1798.38
915.786	1997.58
917.68	2158.79
919.576	2267.32
921.47	2277.19
923.363	2137.72
925.257	1931.59
927.149	1738.13
929.041	1622.66
930.932	1593.86
932.823	1595.73
934.713	1569.6
936.602	1570.14
938.491	1560.67
940.379	1572.54
942.267	1599.07
944.154	1623.61
946.04	1631.48
947.927	1668.01
949.812	1733.88
951.696	1797.08
953.58	1848.28
955.463	1974.15
957.346	2080.69
959.229	2159.89
961.11	2235.76
962.991	2148.29
964.871	2132.16
966.752	2069.36
968.631	1941.9
970.51	1865.1
972.388	1778.97
974.265	1716.17
976.142	1626.04
978.019	1558.57
979.893	1549.78
981.769	1522.31
983.643	1480.18
985.518	1415.38
987.391	1450.58
989.263	1420.45
991.135	1452.32
993.006	1398.19
994.877	1376.72
996.748	1383.26
998.618	1386.46
1000.49	1392.99
1002.35	1381.53
1004.22	1404.73
1006.09	1397.93
1007.96	1405.8
1009.82	1401.67
1011.69	1369.54
1013.55	1348.74
1015.42	1351.94
1017.28	1355.14
1019.15	1348.34
1021.01	1327.55
1022.87	1344.08
1024.73	1374.62
1026.59	1353.82
1028.45	1347.02
1030.31	1334.22
1032.17	1347.42
1034.03	1368.62
1035.89	1360.49
1037.75	1435.69
1039.6	1370.9
1041.46	1368.76
1043.31	1404.63
1045.17	1343.17
1047.02	1350.37
1048.88	1350.24
1050.73	1371.44
1052.58	1355.98
1054.43	1349.18
1056.28	1359.05
1058.14	1314.91
1059.99	1348.12
1061.84	1323.32
1063.68	1317.85
1065.53	1334.39
1067.38	1340.26
1069.23	1321.46
1071.08	1297.99
1072.92	1329.86
1074.77	1315.06
1076.61	1284.26
1078.46	1281.47
1080.3	1312.67
1082.14	1315.87
1083.99	1320.4
1085.83	1301.61
1087.67	1300.14
1089.51	1332.01
1091.35	1338.54
1093.19	1327.75
1095.03	1322.28
1096.87	1325.48
1098.7	1315.35
1100.54	1301.89
1102.38	1313.09
1104.21	1286.96
1106.05	1326.16
1107.88	1334.03
1109.72	1349.89
1111.55	1327.76
1113.39	1292.96
1115.22	1288.17
1117.05	1353.37
1118.88	1303.24
1120.71	1334.44
1122.54	1306.97
1124.37	1302.84
1126.2	1292.71
1128.03	1323.24
1129.86	1370.45
1131.69	1340.32
1133.51	1339.52
1135.34	1343.39
1137.16	1319.25
1138.99	1302.46
1140.81	1360.99
1142.64	1382.19
1144.46	1346.06
1146.28	1305.93
1148.1	1317.13
1149.93	1305
1151.75	1324.87
1153.57	1336.07
1155.39	1327.94
1157.21	1330.47
1159.03	1294.34
1160.84	1300.21
1162.66	1334.74
1164.48	1310.61
1166.29	1323.81
1168.11	1353.02
1169.93	1305.55
1171.74	1298.09
1173.55	1270.62
1175.37	1268.49
1177.18	1279.69
1178.99	1254.23
1180.8	1292.76
1182.61	1291.96
1184.42	1303.83
1186.24	1277.7
1188.04	1274.23
1189.85	1260.1
1191.66	1250.64
1193.47	1325.84
1195.28	1278.37
1197.08	1253.58
1198.89	1260.78
1200.69	1256.65
1202.5	1262.51
1204.3	1296.38
1206.11	1250.25
1207.91	1285.45
1209.71	1281.99
1211.51	1249.86
1213.31	1300.39
1215.12	1287.59
1216.92	1285.46
1218.72	1270
1220.51	1288.53
1222.31	1282.4
1224.11	1306.27
1225.91	1325.47
1227.7	1314.67
1229.5	1293.21
1231.3	1273.74
1233.09	1269.61
1234.88	1290.15
1236.68	1285.35
1238.47	1284.55
1240.26	1314.42
1242.06	1297.62
1243.85	1272.15
1245.64	1256.02
1247.43	1324.56
1249.22	1299.09
1251.01	1280.29
1252.8	1283.5
1254.59	1250.7
1256.37	1265.23
1258.16	1255.77
1259.95	1252.3
1261.73	1252.84
1263.52	1261.37
1265.3	1245.91
1267.08	1237.11
1268.87	1270.98
1270.65	1243.51
1272.43	1246.71
1274.22	1272.58
1276	1239.78
1277.78	1233.65
1279.56	1246.85
1281.34	1249.39
1283.12	1226.59
1284.89	1239.13
1286.67	1217.66
1288.45	1224.86
1290.23	1191.4
1292	1253.27
1293.78	1217.14
1295.55	1208.34
1297.33	1195.54
1299.1	1238.07
1300.87	1236.61
1302.65	1198.48
1304.42	1249.68
1306.19	1220.88
1307.96	1210.08
1309.73	1199.28
1311.5	1201.82
1313.27	1247.69
1315.04	1255.56
1316.81	1228.76
1318.58	1223.96
1320.34	1222.49
1322.11	1211.7
1323.87	1209.56
1325.64	1200.77
1327.4	1206.63
1329.17	1199.84
1330.93	1210.37
1332.7	1190.91
1334.46	1214.11
1336.22	1239.98
1337.98	1218.51
1339.74	1211.71
1341.5	1232.91
1343.26	1204.78
1345.02	1191.98
1346.78	1188.52
1348.54	1213.05
1350.29	1215.59
1352.05	1214.12
1353.81	1179.99
1355.56	1213.86
1357.32	1199.73
1359.07	1182.93
1360.83	1194.13
1362.58	1212.67
1364.33	1189.87
1366.08	1191.74
1367.84	1160.94
1369.59	1186.14
1371.34	1196.01
1373.09	1179.21
1374.84	1190.41
1376.59	1185.62
1378.34	1209.48
1380.08	1164.69
1381.83	1187.89
1383.58	1184.42
1385.32	1217.62
1387.07	1199.49
1388.81	1173.36
1390.56	1173.23
1392.3	1157.1
1394.05	1159.63
1395.79	1177.5
1397.53	1171.37
1399.27	1207.24
1401.01	1185.11
1402.75	1176.97
1404.49	1185.51
1406.23	1157.38
1407.97	1171.91
1409.71	1191.11
1411.45	1160.32
1413.19	1176.85
1414.92	1166.05
1416.66	1154.59
1418.39	1173.12
1420.13	1160.32
1421.86	1143.53
1423.6	1162.73
1425.33	1157.26
1427.06	1157.8
1428.8	1153
1430.53	1173.53
1432.26	1158.07
1433.99	1197.27
1435.72	1166.47
1437.45	1131.67
1439.18	1144.88
1440.9	1158.08
1442.63	1141.28
1444.36	1139.81
1446.09	1136.35
1447.81	1146.89
1449.54	1090.75
1451.26	1132.62
1452.99	1143.82
1454.71	1144.36
1456.43	1132.89
1458.16	1167.43
1459.88	1141.96
1461.6	1150.5
1463.32	1137.03
1465.04	1101.57
1466.76	1120.77
1468.48	1127.97
1470.2	1127.84
1471.92	1144.38
1473.64	1142.24
1475.35	1082.78
1477.07	1170.65
1478.79	1147.18
1480.5	1116.38
1482.22	1133.59
1483.93	1130.79
1485.64	1136.66
1487.36	1169.86
1489.07	1131.73
1490.78	1139.59
1492.49	1146.8
1494.21	1132
1495.92	1121.87
1497.63	1119.73
1499.34	1100.94
1501.04	1132.14
1502.75	1130.01
1504.46	1104.54
1506.17	1130.41
1507.87	1106.28
1509.58	1125.48
1511.29	1132.68
1512.99	1149.88
1514.7	1145.75
1516.4	1106.95
1518.1	1098.82
1519.81	1123.36
1521.51	1099.22
1523.21	1085.09
1524.91	1126.96
1526.61	1121.5
1528.31	1134.03
1530.01	1126.57
1531.71	1122.44
1533.41	1100.3
1535.11	1104.17
1536.8	1120.71
1538.5	1120.58
1540.2	1112.44
1541.89	1090.98
1543.59	1088.18
1545.28	1066.72
1546.98	1095.25
1548.67	1081.79
1550.36	1116.32
1552.06	1076.86
1553.75	1117.39
1555.44	1123.26
1557.13	1140.46
1558.82	1121.66
1560.51	1099.53
1562.2	1062.73
1563.89	1083.27
1565.58	1086.47
1567.26	1089.67
1568.95	1071.54
1570.64	1055.41
1572.32	1096.61
1574.01	1114.48
1575.69	1093.68
1577.38	1083.55
1579.06	1046.08
1580.74	1092.62
1582.43	1091.15
1584.11	1084.35
1585.79	1060.22
1587.47	1087.42
1589.15	1053.29
1590.83	1091.16
1592.51	1093.03
1594.19	1082.9
1595.87	1080.77
1597.55	1072.64
1599.22	1073.84
1600.9	1055.04
1602.58	1066.24
1604.25	1056.78
1605.93	1085.98
1607.6	1067.85
1609.27	1087.71
1610.95	1077.58
1612.62	1073.45
1614.29	1075.99
1615.97	1054.52
1617.64	1070.39
1619.31	1066.92
1620.98	1070.13
1622.65	1053.33
1624.32	1027.86
1625.98	1068.4
1627.65	1063.6
1629.32	1034.8
1630.99	1065.34
1632.65	1053.2
1634.32	1048.41
1635.98	1032.27
1637.65	1039.48
1639.31	1052.01
1640.98	1031.21
1642.64	1047.75
1644.3	1060.28
1645.97	1049.48
1647.63	1076.02
1649.29	1050.55
1650.95	1039.76
1652.61	1075.62
1654.27	1041.49
1655.93	1052.03
1657.58	1055.23
1659.24	1068.43
1660.9	1025.63
1662.56	1051.5
1664.21	1029.37
1665.87	1047.9
1667.52	1054.44
1669.18	1028.31
1670.83	1063.51
1672.49	1051.38
1674.14	1035.25
1675.79	1059.78
1677.44	1074.32
1679.09	1044.19
1680.75	1061.39
1682.39	1048.59
1684.05	1041.79
1685.69	1030.33
1687.34	1058.86
1688.99	1040.06
1690.64	1023.26
1692.29	1019.8
1693.93	1056.33
1695.58	1046.2
1697.22	1042.74
1698.87	1018.61
1700.51	1039.81
1702.16	1053.68
1703.8	1037.54
1705.44	1059.41
1707.09	1039.28
1708.73	1013.15
1710.37	1045.68
1712.01	1046.22
1713.65	1030.75
1715.29	1025.29
1716.93	1035.16
1718.57	1042.36
1720.2	1032.89
1721.84	1017.43
1723.48	1032.63
1725.12	1017.17
1726.75	1017.7
1728.39	1008.24
1730.02	1015.44
1731.66	1009.97
1733.29	1011.84
1734.92	1012.38
1736.56	1012.91
1738.19	980.78
1739.82	1035.98
1741.45	1029.85
1743.08	997.052
1744.71	1018.25
1746.34	1000.12
1747.97	1020.66
1749.6	991.192
1751.23	1027.06
1752.85	994.929
1754.48	1020.8
1756.11	1033.33
1757.73	992.534
1759.36	1052.4
1760.98	980.27
1762.61	1028.4
1764.23	1010.14
1765.85	1000.15
1767.48	1008.48
1769.1	997.377
1770.72	994.842
1772.34	1010.93
1773.96	982.6
1775.58	992.779
1777.2	1003.3
1778.82	999.662
1780.44	992.306
1782.06	1000.63
1783.67	1001.67
1785.29	1012.61
1786.91	1008.42
1788.52	986.684
1790.14	1001.22
1791.75	987.783
1793.37	1010.14
1794.98	1006.48
1796.59	1000.31
1798.21	1018.28
1799.82	1003.1
1801.43	1002.31
1803.04	1005.87
1804.65	997.757
1806.26	992.46
1807.87	985.251
1809.48	973.711
1811.09	971.643
1812.7	977.746
1814.3	982.923
1815.91	992.847
1817.52	973.045
1819.12	975.334
1820.73	973.253
1822.34	972.863
1823.94	973.164
1825.54	972.331
1827.15	988.405
1828.75	971.128
1830.35	958.741
1831.95	959.799
1833.55	965.032
1835.15	975.283
1836.75	944.16
1838.35	953.138
1839.95	970.717
1841.55	980.418
1843.15	954.691
1844.75	953.39
1846.34	959.114
1847.94	957.324
1849.54	945.998
1851.13	943.768
1852.73	951.359
1854.32	937.723
1855.92	951.004
1857.51	950.567
1859.1	947.865
1860.69	940.193
1862.29	953.936
1863.88	953.707
1865.47	964.622
1867.06	978.228
1868.65	963.098
1870.24	948.092
1871.83	954.82
1873.41	965.556
1875	965.45
1876.59	959.278
1878.18	955.699
1879.76	939.199
1881.35	940.941
1882.93	951.026
1884.52	954.973
1886.1	963.275
1887.68	966.673
1889.27	972.879
1890.85	954.483
1892.43	941.404
1894.01	956.339
1895.59	970.754
1897.18	963.532
1898.75	949.902
1900.33	949.573
1901.91	974.233
1903.49	957.615
1905.07	938.313
1906.65	939.668
1908.22	971.674
1909.8	964.149
1911.38	941.841
1912.95	943.512
1914.53	951.915
1916.1	962.21
1917.67	961.678
1919.25	949.076
1920.82	947.483
1922.39	940.992
1923.96	953.327
1925.53	956.226
1927.1	960.927
1928.68	959.529
1929.45	949.539
1931.06	928.771
1932.67	940.004
1934.28	960.57
1935.88	957.802
1937.49	933.701
1939.1	953.601
1940.7	964.167
1942.31	947.399
1943.92	955.298
1945.52	941.197
1947.13	945.763
1948.73	970.329
1950.34	968.228
1951.94	950.128
1953.54	965.36
1955.15	941.926
1956.75	947.825
1958.35	963.724
1959.95	968.957
1961.55	943.523
1963.15	944.755
1964.75	954.655
1966.35	959.887
1967.95	934.453
1969.55	972.352
1971.15	920.251
1972.74	960.151
1974.34	964.05
1975.94	961.949
1977.53	958.515
1979.13	947.747
1980.73	956.98
1982.32	955.546
1983.91	954.778
1985.51	956.678
1987.1	950.577
1988.7	952.476
1990.29	959.708
1991.88	939.608
1993.47	936.174
1995.06	948.739
1996.65	941.305
1998.24	950.538
1999.83	941.104
2001.42	973.003
2003.01	974.235
2004.6	968.801
2006.19	950.701
2007.78	946.6
2009.36	959.166
2010.95	955.065
2012.54	966.964
2014.12	947.53
2015.71	965.429
2017.29	965.328
2018.88	969.228
2020.46	947.127
2022.04	973.693
2023.63	981.592
2025.21	952.824
2026.79	957.39
2028.37	975.956
2029.95	985.855
2031.53	972.421
2033.12	962.32
2034.7	961.553
2036.27	965.452
2037.85	959.351
2039.43	949.251
2041.01	959.15
2042.59	952.382
2044.16	951.615
2045.74	955.514
2047.32	948.747
2048.89	955.312
2050.47	931.878
2052.04	972.444
2053.62	939.01
2055.19	964.909
2056.77	950.808
2058.34	966.708
2059.91	983.274
2061.48	963.173
2063.06	939.072
2064.63	960.305
2066.2	977.537
2067.77	939.436
2069.34	954.669
2070.91	970.568
2072.48	955.134
2074.04	952.366
2075.61	936.266
2077.18	960.165
2078.75	961.397
2080.31	943.963
2081.88	942.529
2083.45	950.428
2085.01	948.328
2086.58	954.893
2088.14	968.126
2089.7	964.025
2091.27	959.258
2092.83	955.823
2094.39	965.056
2095.96	943.622
2097.52	972.854
2099.08	953.42
2100.64	957.32
2102.2	972.552
2103.76	965.118
2105.32	956.35
2106.88	981.583
2108.44	963.482
2110	951.381
2111.55	951.947
2113.11	948.513
2114.67	945.079
2116.23	970.978
2117.78	980.878
2119.34	976.11
2120.89	951.343
2122.45	939.958
2124	955.907
2125.55	942.523
2127.11	936.472
2128.66	950.421
2130.21	955.703
2131.76	966.319
2133.32	937.601
2134.87	968.217
2136.42	966.833
2137.97	966.782
2139.52	966.064
2141.07	951.346
2142.62	957.962
2144.16	954.578
2145.71	948.526
2147.26	956.476
2148.81	953.091
2150.35	953.707
2151.9	972.989
2153.44	950.938
2154.99	964.887
2156.53	982.17
2158.08	960.119
2159.62	972.734
2161.17	969.35
2162.71	964.632
2164.25	963.248
2165.79	953.864
2167.34	947.146
2168.88	970.428
2170.42	950.377
2171.96	946.993
2173.5	960.275
2175.04	964.224
2176.58	950.84
2178.11	974.789
2179.65	960.071
2181.19	957.354
2182.73	945.303
2184.26	961.252
2185.8	943.867
2187.34	967.15
2188.87	955.099
2190.41	964.381
2191.94	954.33
2193.48	961.612
2195.01	978.228
2196.54	968.844
2198.07	971.459
2199.61	980.075
2201.14	966.024
2202.67	937.973
2204.2	965.255
2205.73	955.204
2207.26	973.153
2208.79	979.102
2210.32	950.385
2211.85	941.667
2213.38	956.283
2214.91	967.565
2216.43	976.181
2217.96	934.796
2219.49	978.079
2221.01	947.361
2222.54	956.643
2224.06	969.259
2225.59	963.875
2227.11	974.49
2228.64	973.106
2230.16	983.722
2231.68	961.004
2233.21	981.62
2234.73	978.235
2236.25	996.184
2237.77	985.467
2239.29	976.749
2240.81	952.698
2242.33	982.647
2243.85	975.929
2245.37	999.878
2246.89	973.161
2248.41	979.11
2249.93	962.392
2251.44	950.341
2252.96	992.29
2254.48	956.239
2255.99	972.855
2257.51	982.137
2259.02	971.419
2260.54	969.368
2262.05	977.317
2263.57	978.6
2265.08	975.215
2266.59	982.498
2268.1	993.78
2269.62	979.062
2271.13	989.678
2272.64	1002.96
2274.15	982.909
2275.66	1002.19
2277.17	984.807
2278.68	984.756
2280.19	998.039
2281.7	1009.32
2283.2	1005.94
2284.71	989.219
2286.22	991.835
2287.73	1001.78
2289.23	1018.4
2290.74	984.348
2292.24	982.964
2293.75	1014.25
2295.25	976.195
2296.76	974.144
2298.26	994.093
2299.76	959.376
2301.27	975.325
2302.77	994.607
2304.27	984.556
2305.77	995.172
2307.27	948.454
2308.77	963.736
2310.28	996.352
2311.77	960.968
2313.27	962.917
2314.77	958.199
2316.27	981.481
2317.77	976.097
2319.27	959.379
2320.76	970.662
2322.26	975.944
2323.76	969.893
2325.25	973.842
2326.75	981.791
2328.24	989.073
2329.74	1003.02
2331.23	994.971
2332.73	986.254
2334.22	1007.54
2335.71	1009.48
2337.2	980.101
2338.7	973.383
2340.19	965.999
2341.68	976.614
2343.17	982.563
2344.66	957.846
2346.15	964.461
2347.64	987.077
2349.13	959.026
2350.62	969.642
2352.1	974.257
2353.59	980.873
2355.08	954.155
2356.56	982.104
2358.05	970.053
2359.54	959.336
2361.02	979.285
2362.51	979.234
2363.99	980.516
2365.48	997.132
2366.96	967.081
2368.44	952.363
2369.93	991.645
2371.41	942.261
2372.89	956.21
2374.37	1006.16
2375.85	981.441
2377.33	958.724
2378.81	965.339
2380.29	977.955
2381.77	987.237
2383.25	975.853
2384.73	969.135
2386.21	961.751
2387.69	981.033
2389.16	974.982
2390.64	984.931
2392.12	1003.55
2393.59	967.496
2395.07	993.445
2396.54	978.061
2398.02	1043.34
2399.49	981.959
2400.96	983.908
2402.44	985.857
2403.91	959.139
2405.38	992.421
2406.85	995.704
2408.33	986.986
2409.8	996.268
2411.27	976.884
2412.74	978.833
2414.21	997.449
2415.68	980.731
2417.15	982.68
2418.62	972.629
2420.08	978.578
2421.55	946.527
2423.02	987.809
2424.49	993.092
2425.95	988.374
2427.42	964.323
2428.88	972.939
2430.35	988.888
2431.81	990.837
2433.28	996.119
2434.74	1006.73
2436.21	989.35
2437.67	976.633
2439.13	985.248
2440.59	977.197
2442.05	1007.15
2443.52	977.095
2444.98	980.378
2446.44	975.66
2447.9	988.276
2449.36	987.558
2450.81	988.174
2452.27	982.123
2453.73	990.072
2455.19	968.687
2456.65	992.636
2458.1	1033.25
2459.56	971.868
2461.02	965.15
2462.47	990.432
2463.93	965.048
2465.38	969.664
2466.84	984.279
2468.29	997.562
2469.74	996.177
2471.2	993.46
2472.65	993.409
2474.1	973.358
2475.55	981.307
2477.01	975.256
2478.46	996.538
2479.91	990.487
2481.36	1001.77
2482.81	1017.05
2484.26	1009.67
2485.71	995.616
2487.15	999.565
2488.6	973.514
2490.05	1002.13
2491.5	1009.41
2492.94	1006.69
2494.39	1007.31
2495.84	990.593
2497.28	983.208
2498.73	975.824
2500.17	992.44
2501.61	997.055
2503.06	1003.67
2504.5	987.62
2505.95	978.902
2507.39	997.518
2508.83	992.134
2510.27	996.083
2511.71	994.698
2513.15	1013.98
2514.59	1008.6
2516.03	1019.21
2517.47	1010.49
2518.91	1010.44
2520.35	999.726
2521.79	986.341
2523.23	994.29
2524.66	978.906
2526.1	1006.86
2527.54	1020.8
2528.97	1010.75
2530.41	1001.37
2531.84	975.318
2533.28	1003.93
2534.71	1014.55
2536.15	989.831
2537.58	1000.45
2539.01	1017.06
2540.45	1008.35
2541.88	999.627
2543.31	1026.24
2544.74	1010.19
2546.17	1020.14
2547.6	1022.09
2549.04	986.039
2550.47	1043.32
2551.89	1007.27
2553.32	1025.22
2554.75	1009.17
2556.18	993.117
2557.61	1022.4
2559.04	1009.68
2560.46	1010.3
2561.89	1019.58
2563.31	1016.86
2564.74	1010.14
2566.17	1000.09
2567.59	1055.38
2569.01	1021.33
2570.44	1009.94
2571.86	987.223
2573.28	1003.17
2574.71	996.454
2576.13	1015.74
2577.55	1018.35
2578.97	1010.97
2580.39	1020.92
2581.81	991.533
2583.23	1022.15
2584.65	1006.76
2586.07	1022.05
2587.49	1021.33
2588.91	1021.28
2590.33	1015.89
2591.74	1018.51
2593.16	1005.79
2594.58	1005.07
2596	1007.02
2597.41	982.972
2598.83	1022.25
2600.24	1020.2
2601.66	1016.15
2603.07	1010.77
2604.48	1023.38
2605.9	1034.67
2607.31	1008.61
2608.72	1002.56
2610.14	1002.51
2611.55	1014.46
2612.96	1006.41
2614.37	1026.36
2615.78	1052.31
2617.19	1001.59
2618.6	1027.54
2620.01	1023.49
2621.42	1016.77
2622.83	1020.05
2624.23	1018.67
2625.64	1021.29
2627.05	1014.57
2628.46	1030.52
2629.86	1017.13
2631.27	1043.75
2632.67	1028.36
2634.08	992.312
2635.48	1030.26
2636.89	1028.21
2638.29	1018.83
2639.69	1005.44
2641.1	987.391
2642.5	1019.34
2643.9	1025.29
2645.3	992.571
2646.7	1015.19
2648.11	1028.47
2649.51	1007.08
2650.91	1026.37
2652.31	1038.98
2653.71	1024.27
2655.1	1031.55
2656.5	1002.83
2657.9	1023.45
2659.3	1017.39
2660.69	1014.68
2662.09	1015.96
2663.49	1038.57
2664.88	1007.86
2666.28	1020.47
2667.67	1017.76
2669.07	1019.7
2670.46	1004.99
2671.86	1020.94
2673.25	1000.88
2674.64	1003.5
2676.04	1009.45
2677.43	1009.4
2678.82	1033.35
2680.21	1007.96
2681.6	1018.58
2682.99	1013.86
2684.38	1012.48
2685.77	1015.76
2687.16	1008.37
2688.55	1018.99
2689.94	1033.61
2691.33	1010.22
2692.71	1034.84
2694.1	1019.45
2695.49	998.735
2696.88	1031.35
2698.26	1025.3
2699.65	1027.25
2701.03	1022.53
2702.42	1002.48
2703.8	1017.76
2705.18	1022.38
2706.57	1015.66
2707.95	1024.94
2709.33	1032.23
2710.72	1018.17
2712.1	1017.46
2713.48	1005.41
2714.86	1030.02
2716.24	1010.64
2717.62	1043.25
2719	1017.87
2720.38	1020.48
2721.76	1026.43
2723.14	1046.38
2724.52	1058.33
2725.89	1030.28
2727.27	1032.9
2728.65	1011.51
2730.02	1020.13
2731.4	1003.41
2732.78	1014.69
2734.15	1004.64
2735.53	1016.59
2736.9	1016.54
2738.27	1016.49
2739.65	999.103
2741.02	1024.39
2742.39	1013.67
2743.77	1004.95
2745.14	1032.23
2746.51	1050.85
2747.88	1013.46
2749.25	1032.08
2750.62	1023.36
2751.99	1029.31
2753.36	1040.59
2754.73	1035.21
2756.1	1015.16
2757.47	1035.11
2758.84	1025.06
2760.2	1025.67
2761.57	1031.62
2762.94	1019.57
2764.3	1024.19
2765.67	1034.13
2767.03	1038.08
2768.4	1027.37
2769.76	1031.98
2771.13	1020.6
2772.49	1021.21
2773.86	1033.16
2775.22	1022.44
2776.58	1036.39
2777.94	1029.01
2779.3	1026.29
2780.67	1049.57
2782.03	1057.52
2783.39	1054.8
2784.75	1034.09
2786.11	1031.37
2787.47	1017.32
2788.83	1035.27
2790.18	1038.55
2791.54	1019.83
2792.9	1029.78
2794.26	1043.06
2795.61	1024.35
2796.97	1024.96
2798.33	1047.58
2799.68	1015.53
2801.04	1014.14
2802.39	1021.42
2803.75	1022.04
2805.1	1037.99
2806.45	1026.6
2807.81	1039.22
2809.16	1022.5
2810.51	1012.45
2811.86	1036.4
2813.22	1013.68
2814.57	1056.96
2815.92	1057.58
2817.27	1018.86
2818.62	1024.81
2819.97	1030.09
2821.32	1036.04
2822.67	1015.33
2824.01	1037.94
2825.36	1028.56
2826.71	1014.51
2828.06	1021.79
2829.4	1007.74
2830.75	1023.69
2832.1	1026.97
2833.44	1015.58
2834.79	1012.2
2836.13	1018.82
2837.48	1029.43
2838.82	1038.71
2840.16	1032.66
2841.51	1021.28
2842.85	1019.23
2844.19	1029.18
2845.53	1024.46
2846.87	1022.41
2848.22	1017.69
2849.56	992.306
2850.9	1034.92
2852.24	997.537
2853.58	1032.82
2854.92	1023.43
2856.25	1046.05
2857.59	1012
2858.93	1027.28
2860.27	1041.9
2861.6	1045.85
2862.94	1021.13
2864.28	1001.74
2865.61	1045.03
2866.95	1016.98
2868.28	1007.59
2869.62	1022.87
2870.95	1009.49
2872.29	1030.77
2873.62	1026.05
2874.95	1012.67
2876.29	1014.62
2877.62	1007.9
2878.95	1039.18
2880.28	1047.8
2881.61	1042.41
2882.94	1042.36
2884.27	1051.65
2885.6	1040.26
2886.93	1036.88
2888.26	1023.49
2889.59	1038.78
2890.92	1020.06
2892.25	1026.01
2893.57	1023.29
2894.9	1019.9
2896.23	1031.85
2897.55	1029.8
2898.88	1033.09
2900.2	1007.03
2901.53	1030.98
2902.85	1044.93
2904.18	1037.55
2905.5	1023.5
2906.83	1024.78
2908.15	1000.73
2909.47	1026.01
2910.79	1042.63
2912.12	1030.58
2913.44	1041.19
2914.76	1027.81
2916.08	998.422
2917.4	1017.7
2918.72	1024.99
2920.04	1024.27
2921.36	1036.22
2922.68	1018.83
2923.99	1026.78
2925.31	1018.73
2926.63	1018.68
2927.95	1028.63
2929.26	1009.91
2930.58	1031.19
2931.89	1033.14
2933.21	1021.09
2934.53	1005.04
2935.84	1021.66
2937.15	998.273
2938.47	1032.89
2939.78	1014.17
2941.09	1012.79
2942.41	1031.4
2943.72	1003.35
2945.03	1048.63
2946.34	1035.25
2947.65	1031.86
2948.96	1007.15
2950.27	1017.1
2951.58	1029.05
2952.89	1012.33
2954.2	1030.28
2955.51	1016.89
2956.82	1037.51
2958.13	1032.12
2959.44	1027.41
2960.74	1068.69
2962.05	1021.3
2963.36	1020.59
2964.66	1017.87
2965.97	1022.48
2967.27	1040.43
2968.58	1029.05
2969.88	1001
2971.19	1024.95
2972.49	1043.56
2973.79	1042.18
2975.09	1023.46
2976.4	1017.41
2977.7	1044.69
2979	1018.64
2980.3	1034.59
2981.6	1038.54
2982.9	1033.82
2984.2	1023.77
2985.5	1023.72
2986.8	1027
2988.1	1010.28
2989.4	1034.23
2990.7	1012.85
2991.99	1030.13
2993.29	1022.75
2994.59	1046.03
2995.88	1035.98
2997.18	1031.26
2998.48	1023.21
2999.77	1017.83
3001.07	1035.77
3002.36	1021.06
3003.66	1041.01
3004.95	1039.62
3006.24	1051.57
3007.54	1047.52
3008.83	1032.8
3010.12	1014.08
3011.41	1022.7
3012.7	1029.32
3013.99	1041.93
3015.28	1013.88
3016.57	1025.83
3017.86	1031.78
3019.15	1023.06
3020.44	1035.68
3021.73	1005.62
3023.02	1030.24
3024.31	1030.86
3025.6	1040.14
3026.88	1042.09
3028.17	1028.04
3029.46	1015.99
3030.74	1028.6
3032.03	1009.88
3033.31	1056.5
3034.6	1029.11
3035.88	1030.4
3037.16	1035.68
3038.45	1038.3
3039.73	1038.91
3041.01	1038.86
3042.3	1006.14
3043.58	1014.09
3044.86	1024.71
3046.14	1039.32
3047.42	1048.6
3048.7	1025.89
3049.98	1014.5
3051.26	1039.79
3052.54	1047.73
3053.82	1040.35
3055.1	1009.63
3056.38	1022.91
3057.65	1009.53
3058.93	1024.81
3060.21	1018.09
3061.48	1008.71
3062.76	1025.33
3064.04	1008.61
3065.31	1017.22
3066.59	1013.17
3067.86	1026.46
3069.13	1009.07
3070.41	1039.02
3071.68	1020.3
3072.95	1014.25
3074.23	1013.53
3075.5	1023.48
3076.77	1031.43
3078.04	1044.05
3079.31	1036
3080.58	1049.81
3081.86	1012.61
3083.12	1010.35
3084.39	1015.24
3085.66	1008.4
3086.93	1009.26
3088.2	1020.6
3089.47	1012.64
3090.74	1009.47
3092	1028.57
3093.27	1017.64
3094.54	993.773
3095.8	1004.96
3097.07	1009.37
3098.33	1019.69
3099.6	1024.44
3100.86	1005.29
3102.13	978.714
3103.39	1006.31
3104.65	1016.86
3105.92	1015.94
3107.18	1014.49
3108.44	1009.64
3109.7	1028.13
3110.96	1024.83
3112.22	1023.08
3113.49	991.984
3114.75	1002.82
3116.01	1012.25
3117.27	1019.29
3118.52	999.165
3119.78	997.547
3121.04	1022.56
3122.3	1007.56
3123.56	993.598
3124.81	1019.12
3126.07	1021.52
3127.33	1010.45
3128.58	1023.57
3129.84	1003.59
3131.09	996.205
3132.35	991.445
3133.6	1001.42
3134.86	1007.81
3136.11	996.136
3137.36	1009.7
3138.62	1014.53
3139.87	993.635
3141.12	1003.09
3142.37	1002.34
3143.62	1012.22
3144.87	1013.45
3146.13	1020.63
3147.38	1018.72
3148.63	1026.63
3149.88	1033.41
3151.12	1025.08
3152.37	1018.25
3153.62	1017.46
3154.87	1017.27
3156.12	1024.2
3157.36	1017.99
3158.61	1014.56
3159.86	1013.04
3161.1	1007.87
3162.35	1008.14
3163.59	1013.98
3164.84	1005.93
3166.08	1009.32
3167.33	1002.68
3168.57	994.051
3169.81	1010.47
3171.06	1013.28
3172.3	1004.8
3173.54	997.319
3174.78	989.951
3176.02	1019.2
3177.27	1015.93
3178.51	1001.44
3179.75	999.217
3180.99	1010.01
3182.23	1007.73
3183.46	999.214
3184.7	1003.47
3185.94	998.629
3187.18	993.727
3188.42	1005.94
3189.65	1013.37
3190.89	1004.7
3192.13	1005.05
3193.36	991.215
3194.6	988.251
3195.83	998.051
3197.07	996.025
3198.3	996.49
3199.54	1001.41
3200.77	999.697
3202.01	998.474
3203.24	1009.66
3204.47	993.112
3205.7	993.206
3206.93	1009.8
3208.17	1002.38
3209.4	1004.04
3210.56	1005.44
3211.83	986.767
3213.1	975.426
3214.37	978.085
3215.64	993.411
3216.91	1000.74
3218.17	1000.73
3219.44	996.055
3220.71	980.714
3221.98	995.374
3223.25	976.699
3224.51	984.692
3225.78	972.684
3227.05	978.01
3228.31	984.669
3229.58	993.995
3230.84	985.321
3232.11	987.313
3233.37	1015.31
3234.64	1011.3
3235.9	997.291
3237.16	983.95
3238.43	999.942
3239.69	991.935
3240.95	1013.26
3242.21	1011.25
3243.48	1016.58
3244.74	983.905
3246	968.564
3247.26	1001.22
3248.52	1011.22
3249.78	983.874
3251.04	991.867
3252.3	977.193
3253.56	984.518
3254.82	994.511
3256.08	990.503
3257.33	979.829
3258.59	976.488
3259.85	975.148
3261.11	989.807
3262.36	1011.13
3263.62	973.792
3264.88	969.117
3266.13	997.11
3267.39	985.102
3268.64	971.761
3269.9	997.754
3271.15	951.08
3272.41	1009.74
3273.66	995.065
3274.91	994.39
3276.17	993.716
3277.42	961.709
3278.67	997.701
3279.92	967.027
3281.18	973.019
3282.43	975.679
3283.68	995.004
3284.93	972.997
3286.18	997.656
3287.43	994.315
3288.68	970.974
3289.93	972.967
3291.18	982.293
3292.43	981.618
3293.68	1021.61
3294.92	988.27
3296.17	993.596
3297.42	954.922
3298.67	962.247
3299.91	964.906
3301.16	972.899
3302.4	1005.56
3303.65	953.55
3304.9	946.876
3306.14	966.202
3307.39	973.528
3308.63	994.187
3309.87	968.18
3311.12	984.172
3312.36	987.498
3313.6	983.49
3314.85	973.483
3316.09	980.142
3317.33	977.468
3318.57	976.793
3319.82	974.786
3321.06	970.778
3322.3	970.771
3323.54	973.43
3324.78	970.089
3326.02	974.082
3327.26	974.074
3328.5	974.733
3329.73	948.726
3330.97	971.385
3332.21	952.044
3333.45	967.37
3334.69	960.695
3335.92	966.688
3337.16	977.347
3338.4	962.006
3339.63	969.999
3340.87	973.324
3342.1	977.984
3343.34	953.976
3344.57	955.302
3345.81	969.294
3347.04	964.62
3348.28	962.613
3349.51	995.938
3350.74	959.264
3351.98	981.257
3353.21	966.582
3354.44	969.908
3355.67	957.901
3356.9	963.893
3358.13	973.886
3359.37	966.545
3360.6	969.871
3361.83	1000.53
3363.06	962.522
3364.29	952.515
3365.51	978.507
3366.74	977.166
3367.97	959.825
3369.2	976.484
3370.43	960.477
3371.66	936.469
3372.88	951.795
3374.11	964.454
3375.34	968.447
3376.56	967.773
3377.79	957.098
3379.01	955.091
3380.24	957.083
3381.46	955.076
3382.69	953.735
3383.91	966.394
3385.14	929.053
3386.36	951.712
3387.58	943.038
3388.81	946.364
3390.03	921.69
3391.25	972.349
3392.47	932.341
3393.69	950.334
3394.91	943.66
3396.14	970.319
3397.36	961.645
3398.58	964.97
3399.8	966.296
3401.01	950.289
3402.23	945.614
3403.45	942.274
3404.67	947.599
3405.89	937.592
3407.11	952.918
3408.33	938.243
3409.54	920.236
3410.76	954.895
3411.98	930.887
3413.19	931.547
3414.41	941.539
3415.62	919.532
3416.84	934.857
3418.05	910.85
3419.27	953.509
3420.48	944.835
3421.7	936.161
3422.91	934.82
3424.12	928.146
3425.34	936.138
3426.55	945.464
3427.76	941.456
3428.97	918.782
3430.19	951.441
3431.4	932.1
3432.61	920.759
3433.82	919.419
3435.03	909.411
3436.24	928.737
3437.45	922.063
3438.66	932.055
3439.87	920.714
3441.08	910.707
3442.28	938.699
3443.49	915.358
3444.7	914.017
3445.91	950.677
3447.11	918.669
3448.32	913.328
3449.53	911.987
3450.73	904.646
3451.94	949.972
3453.14	921.965
3454.35	928.624
3455.55	909.95
3456.76	944.609
3457.96	927.268
3459.17	921.927
3460.37	917.253
3461.57	919.245
3462.78	935.238
3463.98	917.897
3465.18	934.556
3466.38	911.215
3467.58	934.541
3468.78	936.533
3469.99	903.193
3471.19	931.852
3472.39	915.177
3473.59	902.503
3474.79	929.162
3475.98	939.155
3477.18	906.481
3478.38	911.806
3479.58	927.799
3480.78	921.791
3481.98	913.117
3483.17	903.776
3484.37	881.769
3485.57	880.428
3486.76	887.754
3487.96	897.08
3489.15	928.405
3490.35	909.064
3491.54	906.39
3492.74	903.716
3493.93	911.709
3495.13	910.368
3496.32	917.027
3497.51	882.353
3498.71	903.678
3499.9	904.338
3501.09	894.33
3502.28	906.322
3503.48	912.315
3504.67	886.307
3505.86	898.3
3507.05	890.959
3508.24	903.618
3509.43	903.611
3510.62	898.936
3511.81	863.596
3513	912.255
3514.19	896.247
3515.37	884.24
3516.56	894.899
3517.75	914.225
3518.94	922.884
3520.12	902.876
3521.31	897.535
3522.5	884.194
3523.68	902.853
3524.87	890.179
3526.05	914.838
3527.24	904.164
3528.43	894.157
3529.61	890.149
3530.79	892.142
3531.98	896.134
3533.16	896.793
3534.34	890.786
3535.53	884.112
3536.71	901.437
3537.89	873.43
3539.07	872.755
3540.25	890.081
3541.44	866.74
3542.62	894.066
3543.8	856.725
3544.98	858.718
3546.16	886.71
3547.34	883.37
3548.52	874.695
3549.7	863.354
3550.88	863.347
3552.05	862.673
3553.23	903.332
3554.41	879.324
3555.59	899.317
3556.76	900.643
3557.94	914.635
3559.12	864.627
3560.29	871.287
3561.47	875.279
3562.64	870.605
3563.82	881.264
3564.99	839.923
3566.17	865.249
3567.34	888.575
3568.52	877.901
3569.69	849.893
3570.86	884.552
3572.04	862.545
3573.21	870.537
3574.38	871.196
3575.55	873.855
3576.72	875.181
3577.9	876.507
3579.07	889.833
3580.24	837.159
3581.41	885.151
3582.58	921.143
3583.75	869.803
3584.92	865.128
3586.08	869.121
3587.25	859.78
3588.42	879.772
3589.59	873.098
3590.76	870.424
3591.92	891.75
3593.09	869.076
3594.26	885.735
3595.42	870.394
3596.59	887.72
3597.76	875.712
3598.92	867.038
3600.09	873.031
3601.25	862.356
3602.42	879.015
3603.58	863.675
3604.74	879.667
3605.91	842.326
3607.07	874.319
3608.23	868.978
3609.4	866.304
3610.56	861.629
3611.72	860.289
3612.88	877.614
3614.04	868.273
3615.21	865.599
3616.37	872.925
3617.53	871.584
3618.69	846.91
3619.85	856.236
3621	872.228
3622.16	888.887
3623.32	849.546
3624.48	841.539
3625.64	858.198
3626.8	866.857
3627.95	856.85
3629.11	864.842
3630.27	859.501
3631.42	849.494
3632.58	857.486
3633.74	851.479
3634.89	858.138
3636.05	834.13
3637.2	861.456
3638.36	871.448
3639.51	854.108
3640.66	848.1
3641.82	836.093
3642.97	865.418
3644.12	863.411
3645.28	855.403
3646.43	848.062
3647.58	838.055
3648.73	878.047
3649.88	875.373
3651.04	852.032
3652.19	864.025
3653.34	866.017
3654.49	858.676
3655.64	855.336
3656.79	847.328
3657.93	865.32
3659.08	833.313
3660.23	841.305
3661.38	846.631
3662.53	855.29
3663.68	846.616
3664.82	847.942
3665.97	839.268
3667.12	827.927
3668.26	846.586
3669.41	844.578
3670.55	861.904
3671.7	857.23
3672.84	842.556
3673.99	834.548
3675.13	831.207
3676.28	866.533
3677.42	855.192
3678.56	871.852
3679.71	849.844
3680.85	835.836
3681.99	841.829
3683.13	839.155
3684.28	837.814
3685.42	838.473
3686.56	839.799
3687.7	803.791
3688.84	827.784
3689.98	836.443
3691.12	844.435
3692.26	826.428
3693.4	825.754
3694.54	838.413
3695.68	825.738
3696.81	814.398
3697.95	830.39
3699.09	833.716
3700.23	827.708
3701.36	843.701
3702.5	824.36
3703.64	811.686
3704.77	827.012
3705.91	831.004
3707.04	819.663
3708.18	843.656
3709.31	815.648
3710.45	836.974
3711.58	808.3
3712.72	798.292
3713.85	825.618
3714.98	841.61
3716.12	826.27
3717.25	799.595
3718.38	816.254
3719.51	825.58
3720.64	806.239
3721.78	809.565
3722.91	816.891
3724.04	812.883
3725.17	798.876
3726.3	790.868
3727.43	807.528
3728.56	792.187
3729.69	809.512
3730.82	808.838
3731.94	792.164
3733.07	812.157
3734.2	801.482
3735.33	790.808
3736.45	808.134
3737.58	808.126
3738.71	804.786
3739.83	806.778
3740.96	794.77
3742.09	804.763
3743.21	778.755
3744.34	801.415
3745.46	792.074
3746.59	790.733
3747.71	781.392
3748.83	778.718
3749.96	801.377
3751.08	796.703
3752.2	786.695
3753.32	806.688
3754.45	786.68
3755.57	796.006
3756.69	804.665
3757.81	782.657
3758.93	793.983
3760.05	768.642
3761.17	795.968
3762.29	771.961
3763.41	794.62
3764.53	799.946
3765.65	797.938
3766.77	809.93
3767.89	765.923
3769.01	789.249
3770.12	801.241
3771.24	805.234
3772.36	797.226
3773.47	795.885
3774.59	782.544
3775.71	817.204
3776.82	795.196
3777.94	780.522
3779.05	799.181
3780.17	776.507
3781.28	786.499
3782.4	787.825
3783.51	789.818
3784.63	806.477
3785.74	799.136
3786.85	785.795
3787.96	801.121
3789.08	780.446
3790.19	787.106
3791.3	783.098
3792.41	759.091
3793.52	766.416
3794.63	785.076
3795.74	767.735
3796.86	773.727
3797.97	772.386
3799.07	770.379
3800.18	781.704
3801.29	786.364
3802.4	777.689
3803.51	774.349
3804.62	769.008
3805.73	779
3806.83	776.326
3807.94	734.318
3809.05	752.978
3810.15	762.97
3811.26	778.963
3812.37	782.955
3813.47	764.281
3814.58	764.94
3815.68	766.266
3816.79	778.925
3817.89	755.584
3818.99	764.91
3820.1	773.569
3821.2	755.561
3822.3	744.887
3823.41	763.546
3824.51	752.205
3825.61	753.531
3826.71	749.524
3827.81	747.516
3828.92	757.509
3830.02	756.168
3831.12	740.827
3832.22	759.486
3833.32	754.812
3834.42	763.471
3835.52	751.463
3836.61	712.122
3837.71	724.782
3838.81	759.441
3839.91	759.433
3841.01	758.092
3842.1	747.418
3843.2	756.744
3844.3	737.403
3845.4	742.729
3846.49	736.055
3847.59	725.38
3848.68	740.706
3849.78	742.699
3850.87	755.358
3851.97	750.684
3853.06	735.343
3854.16	756.669
3855.25	723.328
3856.34	735.987
3857.44	725.979
3858.53	736.638
3859.62	741.298
3860.71	739.957
3861.81	751.949
3862.9	726.608
3863.99	741.934
3865.08	737.927
3866.17	729.252
3867.26	743.912
3868.35	719.904
3869.44	743.23
3870.53	730.556
3871.62	723.881
3872.71	745.874
3873.79	722.533
3874.88	723.859
3875.97	710.518
3877.06	730.51
3878.15	730.503
3879.23	741.162
3880.32	719.821
3881.41	707.814
3882.49	733.139
3883.58	732.465
3884.66	725.791
3885.75	739.784
3886.83	744.443
3887.92	719.102
3889	713.094
3890.08	733.087
3891.17	731.079
3892.25	736.405
3893.33	721.731
3894.42	713.057
3895.5	705.049
3896.58	719.708
3897.66	713.034
3898.74	729.026
3899.82	711.019
3900.91	705.678
3901.99	716.337
3903.07	727.663
3904.15	719.655
3905.23	727.648
3906.3	740.307
3907.38	712.966
3908.46	710.292
3909.54	728.951
3910.62	720.277
3911.7	704.269
3912.77	722.262
3913.85	724.254
3914.93	696.913
3916	736.239
3917.08	702.898
3918.16	705.557
3919.23	702.217
3920.31	708.209
3921.38	730.202
3922.46	715.527
3923.53	730.853
3924.6	716.179
3925.68	714.171
3926.75	733.497
3927.82	696.156
3928.9	678.815
3929.97	686.141
3931.04	713.467
3932.11	715.46
3933.18	682.119
3934.25	707.444
3935.33	690.104
3936.4	693.429
3937.47	691.422
3938.54	712.748
3939.61	685.407
3940.68	696.733
3941.74	704.058
3942.81	696.718
3943.88	697.377
3944.95	692.036
3946.02	694.695
3947.08	696.687
3948.15	674.013
3949.22	679.339
3950.29	683.331
3951.35	678.657
3952.42	693.983
3953.48	679.309
3954.55	687.301
3955.61	686.627
3956.68	690.62
3957.74	673.279
3958.81	697.938
3959.87	686.597
3960.93	692.589
3962	677.915
3963.06	677.908
3964.12	689.234
3965.19	681.893
3966.25	700.552
3967.31	675.211
3968.37	685.203
3969.43	666.529
3970.49	672.522
3971.55	658.514
3972.61	674.507
3973.67	677.166
3974.73	660.492
3975.79	664.484
3976.85	683.143
3977.91	662.469
3978.97	678.461
3980.03	675.12
3981.08	659.78
3982.14	666.439
3983.2	661.765
3984.25	671.09
3985.31	678.416
3986.37	661.075
3987.42	678.401
3988.48	668.394
3989.53	673.053
3990.59	685.045
3991.64	664.371
3992.7	673.03
3993.75	652.356
3994.81	677.015
3995.86	666.341
3996.91	659
3997.97	647.659
3999.02	655.652
