#Acq. time (s)=	1
#Accumulations=	4
#Range (cm-¹)=	60...4000
#Windows=	2
#Auto scanning=	Off
#Autofocus=	Off
#AutoExposure=	Off
#Spike filter=	Multiple accum.
#Delay time (s)=	0
#Binning=	1
#Readout mode=	Signal
#DeNoise=	Off
#ICS correction=	Off
#Dark correction=	Off
#Inst. Process=	Off
#Detector Gain=	Best Dynamic Range
#Detector ADC=	45 kHz       
#Detector temperature (°C)=	-60.1
#Instrument=	XploRA Plus
#Detector=	Syncerity OE
#Objective=	x50_VIS_LWD
#Grating=	1200 (750nm)
#Filter=	50%
#Laser=	532nm_Edge
#Slit (µm)=	100 
#Hole (µm)=	300 
#Temperature=	0
#StageXY=	75x50mm Scan+
#StageZ=	Z motor
#X (µm)=	0
#Y (µm)=	0
#Z (µm)=	-40.1
#Full time(s)=	31
#Project=	
#Sample=	
#Site=	
#Title=	cubic_zirconia_16_38_44_2026_04_01_4_1 s_532nm_Edge_1200 (750nm)_x50_VIS_LWD_100 µm_300 µm_50%
#Remark=	
#Date=	01.04.2026 16:38
#Acquired=	01.04.2026 16:38:59
#AxisType[0]=Intens
#AxisUnit[0]=Cnt
#AxisType[1]=Spectr
#AxisUnit[1]=1/cm
62.8738	5225.67
66.1253	5519.67
69.3736	5554.33
72.6208	5573.67
75.869	5620.33
79.1139	5557
82.3577	5586.33
85.6003	5461
88.844	5465
92.0844	5412.33
95.3237	5258.33
98.5619	5237
101.799	5183
105.035	5047
108.27	5039.67
111.503	4997
114.736	4903
117.967	4837.67
121.196	4791.67
124.425	4653.67
127.653	4649
130.88	4559.67
134.104	4490.33
137.328	4513.67
140.552	4365.67
143.773	4307
146.994	4217.67
150.212	4179.67
153.431	4111.67
156.647	4036.33
159.862	4064.33
163.078	4011.67
166.291	3881
169.502	3929
172.713	3873.67
175.924	3727.67
179.132	3728.33
182.339	3725
185.545	3649
188.75	3621.67
191.954	3592.33
195.157	3577
198.358	3507
201.559	3575.67
204.758	3557.67
207.954	3589.67
211.152	3614.33
214.348	3633
217.543	3629.67
220.734	3706.33
223.927	3700.33
227.117	3839.67
230.307	3931.67
233.495	3903
236.683	3993.67
239.868	4061.67
243.055	4271
246.238	4319.67
249.42	4460.33
252.603	4495
255.782	4647.67
258.961	4756.33
262.139	4887.67
265.315	5002.33
268.49	5207
271.665	5415.67
274.838	5542.33
278.01	5791.67
281.181	6039.67
284.351	6242.33
287.52	6451
290.688	6716.33
293.852	6930.33
297.018	7191
300.183	7447
303.344	7621.67
306.506	7982.33
309.665	8231.67
312.826	8322.33
315.983	8710.33
319.141	8964.33
322.296	9175
325.45	9454.33
328.604	9662.33
331.756	9881.67
334.907	10161.7
338.056	10417
341.205	10717
344.352	10845
347.498	11087.7
350.643	11427.7
353.788	11695.7
356.931	11817.7
360.073	12127
363.214	12350.3
366.353	12638.3
369.49	12655
372.628	13031.7
375.765	13149
378.898	13429.7
382.033	13678.3
385.164	13898.3
388.296	14013
391.426	14303.7
394.556	14419.7
397.683	14645.7
400.809	14889.7
403.936	15013.7
407.06	15219
410.183	15452.3
413.305	15632.3
416.426	15870.3
419.545	16105
422.664	16130.3
425.781	16323.7
428.898	16568.3
432.013	16599
435.128	16903
438.239	17158.3
441.351	17333.7
444.463	17423.7
447.571	17549
450.68	17902.3
453.786	17845.7
456.893	18106.3
459.997	18256.3
463.102	18386.3
466.204	18543.7
469.305	18733
472.406	18699
475.505	18907.7
478.603	19017
481.699	19080.3
484.795	18999
487.889	19166.3
490.983	19137
494.075	19203.7
497.166	19192.3
500.257	19275
503.346	19215.7
506.434	19249.7
509.519	19247.7
512.606	19066.3
515.691	19094.3
518.773	19113.7
521.856	18999.7
524.936	19081
528.017	19057.7
531.094	19009
534.171	19047
537.247	18985
540.324	18896.3
543.398	19127
546.47	18868.3
549.542	18849.7
552.613	18683
555.682	18783
558.751	18728.3
561.818	18585.7
564.885	18354.3
567.95	18096.3
571.013	18087
574.076	17853.7
577.138	17667.7
580.198	17471.7
583.258	17351.7
586.315	16981.7
589.374	16817
592.429	16766.3
595.485	16372.3
598.538	16369
601.59	16015.7
604.643	15919
607.693	15785
610.743	15627.7
613.791	15483.7
616.838	15417
619.884	15270.3
622.929	15210.3
625.973	15057
629.013	15053
632.055	14982.3
635.096	14906.3
638.136	14827.7
641.173	14737
644.211	14579.7
647.246	14608.3
650.282	14509
653.314	14535
656.348	14354.3
659.379	14261.7
662.409	14250.3
665.437	14125.7
668.465	14112.3
671.494	13993
674.52	13799.7
677.544	13913.7
680.568	13678.3
683.589	13795.7
686.61	13689
689.631	13610.3
692.651	13593.7
695.669	13628.3
698.685	13599.7
701.702	13529
704.715	13548.3
707.73	13577.7
710.742	13698.3
713.754	13546.3
716.764	13641.7
719.772	13588.3
722.78	13644.3
725.789	13676.3
728.794	13542.3
731.799	13743.7
734.802	13783
737.805	13705.7
740.807	13711.7
743.807	13863.7
746.805	13741.7
749.804	13664.3
752.801	13784.3
755.796	13947
758.792	13723
761.786	13760.3
764.778	13811.7
767.769	13834.3
770.76	13898.3
773.749	13924.3
776.737	13808.3
779.725	13877.7
782.711	13879
785.696	13933
788.68	13903.7
791.662	13846.3
794.644	13979
797.625	13915.7
800.605	13957
803.582	13931
806.559	13943
809.536	13794.3
812.51	13795
815.485	13832.3
818.457	13659
821.43	13599.7
824.4	13485
827.369	13540.3
830.339	13330.3
833.306	13279
836.272	13097.7
839.237	13115
842.201	12873.7
845.164	12710.3
848.126	12682.3
851.087	12565
854.047	12344.3
857.007	12321.7
859.963	12177
862.92	12161.7
865.876	11877.7
868.83	11809
871.784	11678.3
874.735	11585
877.686	11331
880.637	11196.3
883.586	11103.7
886.533	10941.7
889.48	10922.3
892.425	10867
895.37	10579.7
898.313	10445.7
901.256	10278.3
904.198	10221
907.138	10071.7
910.078	9854.33
913.015	9828.33
915.953	9563.67
918.888	9335.67
921.824	9209
924.757	9057
927.691	8912.33
930.622	8760.33
933.552	8569
936.481	8366.33
939.411	8267.67
942.338	8164.33
945.264	7955.67
948.19	7798.33
951.114	7500.33
954.035	7438.33
956.958	7273.67
959.879	7165
962.8	6965
965.717	6904.33
968.636	6703
971.552	6615
974.468	6496.33
977.382	6383
980.295	6333
983.209	6096.33
986.12	5966.33
989.03	5906.33
991.939	5783
994.847	5784.33
997.754	5529
1000.66	5445
1003.57	5282.33
1006.47	5227.67
1009.37	5091.67
1012.27	4947
1015.17	4831.67
1018.07	4719
1020.97	4606.33
1023.87	4511
1026.77	4437.67
1029.66	4331.67
1032.56	4211.67
1035.45	4062.33
1038.34	4002.33
1041.23	3859.67
1044.12	3735.67
1047.01	3693
1049.9	3599.67
1052.78	3503.67
1055.67	3412.33
1058.56	3353
1061.44	3287
1064.32	3185.67
1067.2	3085.65
1070.08	3041.63
1072.96	2975.61
1075.84	2886.26
1078.72	2780.91
1081.6	2737.56
1084.47	2687.55
1087.35	2592.86
1090.22	2548.18
1093.09	2472.16
1095.96	2431.48
1098.83	2372.12
1101.7	2338.11
1104.57	2254.76
1107.43	2168.07
1110.3	2181.39
1113.16	2044.7
1116.03	2032.69
1118.89	1978
1121.75	1899.99
1124.61	1838.64
1127.47	1812.62
1130.33	1815.27
1133.19	1759.92
1136.04	1684.57
1138.9	1636.55
1141.75	1621.2
1144.61	1538.51
1147.46	1479.16
1150.31	1449.15
1153.16	1441.79
1156.01	1401.78
1158.86	1377.76
1161.7	1313.74
1164.55	1284.39
1167.39	1270.37
1170.24	1216.36
1173.08	1189.67
1175.92	1184.99
1178.76	1133.64
1181.6	1124.95
1184.44	1111.6
1187.28	1098.92
1190.12	1062.24
1192.95	1056.22
1195.79	1013.53
1198.62	1016.18
1201.45	949.5
1204.28	946.816
1207.11	923.465
1209.94	913.448
1212.77	882.764
1215.6	884.08
1218.42	856.729
1221.25	846.045
1224.07	784.694
1226.9	810.01
1229.72	778.659
1232.54	735.309
1235.36	725.958
1238.18	715.274
1241	679.257
1243.81	695.239
1246.63	669.222
1249.44	654.538
1252.26	641.187
1255.07	593.17
1257.88	625.819
1260.69	603.135
1263.5	594.451
1266.31	563.767
1269.12	571.083
1271.92	560.399
1274.73	561.048
1277.53	548.364
1280.34	543.013
1283.14	518.329
1285.94	528.979
1288.74	514.961
1291.54	508.277
1294.34	497.593
1297.14	469.576
1299.93	470.892
1302.73	470.208
1305.52	454.857
1308.31	471.507
1311.11	464.156
1313.9	445.472
1316.69	445.454
1319.48	448.77
1322.26	437.42
1325.05	426.069
1327.84	435.385
1330.62	434.701
1333.41	414.017
1336.19	398.666
1338.97	407.315
1341.75	414.631
1344.53	383.281
1347.31	406.597
1350.09	383.913
1352.87	390.562
1355.64	387.211
1358.42	380.527
1361.19	369.843
1363.96	383.826
1366.74	368.475
1369.51	367.124
1372.28	373.107
1375.04	353.756
1377.81	367.739
1380.58	329.722
1383.34	363.038
1386.11	348.354
1388.87	352.336
1391.63	352.319
1394.4	359.635
1397.16	344.951
1399.92	346.267
1402.67	331.583
1405.43	323.565
1408.19	333.548
1410.95	324.864
1413.7	334.847
1416.45	340.829
1419.21	337.478
1421.96	330.794
1424.71	326.11
1427.46	317.426
1430.21	324.742
1432.95	318.725
1435.7	323.374
1438.45	310.69
1441.19	318.006
1443.93	331.989
1446.68	317.972
1449.42	313.954
1452.16	305.937
1454.9	307.919
1457.64	296.569
1460.37	306.551
1463.11	299.201
1465.85	288.517
1468.58	292.499
1471.31	301.815
1474.05	283.798
1476.78	285.114
1479.51	281.763
1482.24	279.079
1484.97	283.728
1487.69	279.711
1490.42	293.027
1493.15	279.676
1495.87	270.992
1498.59	272.308
1501.32	276.957
1504.04	258.273
1506.76	270.256
1509.48	278.239
1512.2	272.888
1514.91	266.204
1517.63	264.853
1520.35	269.503
1523.06	262.819
1525.77	254.801
1528.49	265.451
1531.2	256.1
1533.91	256.749
1536.62	245.398
1539.33	242.048
1542.04	250.03
1544.74	241.346
1547.45	241.329
1550.15	247.312
1552.85	239.294
1555.56	235.277
1558.26	235.259
1560.96	233.909
1563.66	231.891
1566.36	234.541
1569.06	235.19
1571.75	239.173
1574.45	237.155
1577.14	228.471
1579.84	237.787
1582.53	221.77
1585.22	227.086
1587.91	227.068
1590.6	223.051
1593.29	222.367
1595.98	227.683
1598.67	216.999
1601.35	225.648
1604.04	227.631
1606.72	216.28
1609.4	217.596
1612.09	208.912
1614.77	203.561
1617.45	209.544
1620.13	220.86
1622.8	222.176
1625.48	206.159
1628.16	214.808
1630.83	204.791
1633.51	219.44
1636.18	218.756
1638.85	207.405
1641.52	210.054
1644.19	212.037
1646.86	210.02
1649.53	211.336
1652.2	206.652
1654.86	202.634
1657.53	202.617
1660.2	194.6
1662.86	211.249
1665.52	207.231
1668.18	208.547
1670.84	207.197
1673.5	199.846
1676.16	198.495
1678.82	199.145
1681.47	200.461
1684.13	201.777
1686.79	195.759
1689.44	205.742
1692.09	195.058
1694.74	200.374
1697.39	194.356
1700.04	193.006
1702.69	201.655
1705.34	186.971
1707.99	192.954
1710.64	186.936
1713.28	193.586
1715.92	196.235
1718.57	193.551
1721.21	184.2
1723.85	190.183
1726.49	189.499
1729.13	190.815
1731.77	191.464
1734.41	187.447
1737.04	184.763
1739.68	192.079
1742.31	189.395
1744.94	187.377
1747.58	184.026
1750.21	186.676
1752.84	193.992
1755.47	183.974
1758.1	187.29
1760.73	191.273
1763.35	193.922
1765.98	173.238
1768.6	195.221
1771.23	188.537
1773.85	185.186
1776.47	173.169
1779.09	188.485
1781.71	195.134
1784.33	176.45
1786.95	179.766
1789.57	196.415
1792.18	183.731
1794.8	195.047
1797.41	179.03
1800.03	180.346
1802.64	180.328
1805.25	176.978
1807.86	179.627
1810.47	182.276
1813.08	182.926
1815.69	189.575
1818.29	180.224
1820.9	178.874
1823.5	176.19
1826.11	184.172
1828.71	187.488
1831.31	181.471
1833.91	184.12
1836.51	189.436
1839.11	181.419
1841.71	174.068
1844.31	174.051
1846.9	181.367
1849.5	190.016
1852.09	175.998
1854.69	180.648
1857.28	181.297
1859.87	183.946
1862.46	185.262
1865.05	174.578
1867.64	183.228
1870.23	173.21
1872.81	173.86
1875.4	177.842
1877.98	175.825
1880.57	179.807
1883.15	173.79
1885.73	185.773
1888.31	177.089
1890.89	179.738
1893.47	163.721
1896.05	175.703
1898.63	174.353
1901.2	181.002
1903.78	172.318
1906.35	166.3
1908.93	170.95
1911.5	172.266
1914.07	167.582
1916.64	180.898
1919.21	168.214
1921.78	171.53
1924.35	166.179
1926.92	168.162
1929.48	157.477
1932.05	162.127
1934.61	167.443
1937.17	164.759
1939.74	172.075
1942.3	163.391
1944.86	162.04
1947.42	174.023
1949.98	162.672
1952.53	163.321
1955.09	165.971
1957.65	158.62
1960.2	153.269
1962.76	162.585
1965.31	159.901
1967.86	170.55
1970.41	161.866
1972.96	150.516
1975.51	158.498
1978.06	171.814
1980.61	155.13
1983.15	157.113
1985.7	163.762
1988.24	159.078
1990.79	157.061
1993.33	169.043
1995.87	153.693
1998.41	163.675
2000.95	151.658
2003.49	164.307
2006.03	152.956
2008.57	156.272
2011.1	159.588
2013.64	155.571
2016.17	142.887
2018.71	147.536
2021.24	150.852
2023.77	154.168
2026.3	160.818
2028.83	152.8
2031.36	148.116
2033.89	152.099
2036.41	152.081
2038.94	154.064
2041.47	155.38
2043.99	150.696
2046.51	156.679
2049.04	142.661
2051.56	143.311
2054.08	161.293
2056.6	138.609
2059.12	151.925
2061.63	151.241
2064.15	148.557
2066.67	145.873
2069.18	149.856
2071.7	150.505
2074.21	147.154
2076.72	141.804
2079.23	151.12
2081.74	154.436
2084.25	145.085
2086.76	151.067
2089.27	160.383
2091.78	152.366
2094.28	150.349
2096.79	150.331
2099.29	154.314
2101.8	141.63
2104.3	153.613
2106.8	156.262
2109.3	157.578
2111.8	140.227
2114.3	148.21
2116.79	140.192
2119.29	135.508
2121.79	144.158
2124.28	154.14
2126.78	144.123
2129.27	142.772
2131.76	146.088
2134.25	145.404
2136.74	146.053
2139.23	146.036
2141.72	147.352
2144.21	154.668
2146.7	138.651
2149.18	153.967
2151.67	145.949
2154.15	152.599
2156.63	143.248
2159.12	148.564
2161.6	142.546
2164.08	145.862
2166.56	151.845
2169.04	149.828
2171.51	142.477
2173.99	137.126
2176.47	145.109
2178.94	138.425
2181.42	137.741
2183.89	154.39
2186.36	147.039
2188.83	146.355
2191.3	138.338
2193.77	146.987
2196.24	147.637
2198.71	143.619
2201.18	150.269
2203.64	150.918
2206.11	142.901
2208.57	143.55
2211.04	136.199
2213.5	138.182
2215.96	136.831
2218.42	147.48
2220.88	148.796
2223.34	147.446
2225.8	150.762
2228.25	149.411
2230.71	141.394
2233.17	150.709
2235.62	153.359
2238.07	153.341
2240.52	145.991
2242.98	151.307
2245.43	149.956
2247.88	155.939
2250.33	143.921
2252.77	149.237
2255.22	151.22
2257.67	147.869
2260.11	153.852
2262.56	143.834
2265	143.817
2267.44	145.133
2269.89	145.116
2272.33	151.098
2274.77	141.748
2277.21	133.73
2279.65	149.713
2282.08	158.362
2284.52	144.345
2286.96	152.327
2289.39	146.977
2291.82	160.293
2294.26	154.942
2296.69	148.258
2299.12	152.241
2301.55	150.223
2303.98	154.206
2306.41	152.188
2308.83	137.504
2311.26	142.82
2313.69	152.136
2316.11	156.119
2318.54	152.768
2320.96	150.751
2323.38	141.4
2325.8	148.05
2328.22	161.366
2330.65	158.015
2333.06	150.664
2335.48	153.98
2337.9	147.296
2340.31	151.279
2342.73	148.595
2345.14	153.244
2347.56	152.56
2349.97	147.876
2352.38	153.859
2354.79	159.175
2357.2	153.157
2359.61	159.806
2362.02	154.456
2364.43	161.105
2366.83	151.088
2369.24	159.07
2371.64	153.72
2374.05	158.369
2376.45	159.018
2378.85	159.001
2381.26	158.317
2383.65	158.966
2386.06	162.282
2388.45	153.598
2390.85	167.581
2393.25	163.563
2395.64	160.213
2398.04	163.529
2400.43	158.845
2402.83	164.161
2405.22	169.476
2407.61	170.126
2410	164.775
2412.39	170.091
2414.78	175.407
2417.17	168.723
2419.56	170.706
2421.94	170.022
2424.33	168.004
2426.71	171.987
2429.1	169.303
2431.48	178.619
2433.86	165.268
2436.24	165.251
2438.62	167.233
2441	164.549
2443.38	161.865
2445.76	165.848
2448.14	165.831
2450.51	157.813
2452.89	159.129
2455.26	167.112
2457.63	161.761
2460.01	170.41
2462.38	173.06
2464.75	173.042
2467.12	159.025
2469.49	173.674
2471.86	156.324
2474.22	180.973
2476.59	158.955
2478.96	167.605
2481.32	166.921
2483.69	178.237
2486.05	168.219
2488.41	169.535
2490.77	152.185
2493.13	171.501
2495.49	176.817
2497.85	162.799
2500.21	159.448
2502.56	167.431
2504.92	166.747
2507.28	176.73
2509.63	168.712
2511.99	160.695
2514.34	167.344
2516.69	166.66
2519.04	157.976
2521.39	161.959
2523.74	164.608
2526.09	163.257
2528.44	168.573
2530.78	170.556
2533.13	168.539
2535.47	177.855
2537.82	162.504
2540.16	168.487
2542.5	163.136
2544.85	161.119
2547.19	165.101
2549.53	165.084
2551.87	167.066
2554.2	173.716
2556.54	172.365
2558.88	169.014
2561.21	165.664
2563.55	166.285
2565.88	174.734
2568.21	167.489
2570.55	165.365
2572.88	163.858
2575.21	168.846
2577.54	154.095
2579.87	174.754
2582.19	171.65
2584.52	158.843
2586.85	172.039
2589.17	160.992
2591.5	164.839
2593.82	168.681
2596.15	163.416
2598.47	165.955
2600.79	159.707
2603.11	156.317
2605.43	164.484
2607.75	162.11
2610.07	172.234
2612.38	158.807
2614.7	160.37
2617.01	165.344
2619.33	167.796
2621.64	173.413
2623.96	158.073
2626.27	172.178
2628.58	166.073
2630.89	169.304
2633.2	161.12
2635.51	160.929
2637.81	164.754
2640.12	163.402
2642.43	161.045
2644.73	157.289
2647.04	164.482
2649.34	164.87
2651.64	168.539
2653.94	164.434
2656.25	165.336
2658.55	159.997
2660.85	163.826
2663.14	163.703
2665.44	165.374
2667.74	158.879
2670.03	158.964
2672.33	162.426
2674.62	161.285
2676.92	165.899
2679.21	161.432
2681.5	157.45
2683.79	152.639
2686.08	157.906
2688.37	159.666
2690.66	162.333
2692.95	152.482
2695.24	160.533
2697.52	163.182
2699.81	161.678
2702.09	160.067
2704.37	155.788
2706.66	162.467
2708.94	156.355
2711.22	158.947
2713.5	153.929
2715.78	155.535
2718.06	150.166
2720.33	161.361
2722.61	160.298
2724.89	153.273
2727.16	156.478
2729.44	156.384
2731.71	153.675
2733.98	158.613
2736.26	160.656
2738.53	159.907
2740.8	162.097
2743.07	159.826
2745.33	159.119
2747.6	163.263
2749.87	161.571
2752.14	163.648
2754.4	164.917
2756.66	159.676
2758.93	157.029
2761.19	160.253
2763.45	160.07
2765.72	162.397
2767.98	162.267
2770.23	160.889
2772.49	165.261
2774.75	163.446
2777.01	161.463
2779.26	150.615
2781.52	158.676
2783.77	161.693
2786.03	154.901
2788.28	162.844
2790.53	158.574
2792.78	166.531
2795.03	152.677
2797.28	155.426
2797.45	155.653
2799.74	164.3
2802.03	166.28
2804.32	164.928
2806.6	162.241
2808.89	162.889
2811.17	156.869
2813.46	161.516
2815.74	158.163
2818.02	168.81
2820.3	164.791
2822.58	163.438
2824.86	162.085
2827.14	159.399
2829.42	168.713
2831.7	152.693
2833.98	156.674
2836.25	164.654
2838.53	161.968
2840.8	151.948
2843.08	158.595
2845.35	165.909
2847.62	165.89
2849.9	151.204
2852.17	166.517
2854.44	164.498
2856.71	155.812
2858.98	167.792
2861.24	167.106
2863.51	160.42
2865.78	158.4
2868.04	163.047
2870.31	157.694
2872.57	155.008
2874.84	164.989
2877.1	164.302
2879.36	162.949
2881.62	158.93
2883.89	159.577
2886.15	170.224
2888.41	166.871
2890.66	162.185
2892.92	171.499
2895.18	165.479
2897.44	172.127
2899.69	157.44
2901.95	157.421
2904.2	155.401
2906.46	166.715
2908.71	160.029
2910.96	162.676
2913.21	152.656
2915.46	167.304
2917.71	167.284
2919.96	169.264
2922.21	155.912
2924.46	159.892
2926.71	175.873
2928.95	167.853
2931.2	164.5
2933.44	173.814
2935.68	163.794
2937.93	166.441
2940.17	156.422
2942.41	167.069
2944.65	167.716
2946.89	169.697
2949.13	157.01
2951.37	160.324
2953.61	169.638
2955.85	176.952
2958.09	164.266
2960.32	167.579
2962.56	166.227
2964.79	173.54
2967.03	164.187
2969.26	164.168
2971.49	164.148
2973.72	158.796
2975.95	170.109
2978.18	163.423
2980.41	158.07
2982.64	175.384
2984.87	162.031
2987.1	180.678
2989.33	167.325
2991.55	171.306
2993.78	175.953
2996	169.267
2998.22	172.581
3000.45	165.228
3002.67	161.875
3004.89	165.189
3007.11	165.169
3009.33	169.816
3011.55	162.463
3013.77	165.777
3015.99	163.091
3018.21	177.071
3020.42	162.385
3022.64	159.699
3024.85	170.346
3027.07	176.993
3029.28	174.974
3031.49	172.288
3033.71	170.268
3035.92	173.582
3038.13	173.562
3040.34	168.209
3042.55	176.856
3044.76	180.17
3046.97	172.151
3049.17	178.131
3051.38	162.778
3053.58	172.759
3055.79	164.739
3058	175.386
3060.2	172.7
3062.4	166.681
3064.6	174.661
3066.8	172.642
3069.01	179.955
3071.21	170.602
3073.41	171.25
3075.6	167.23
3077.8	168.544
3080	175.191
3082.2	168.505
3084.39	175.152
3086.59	177.799
3088.78	189.78
3090.97	173.093
3093.17	177.74
3095.36	172.388
3097.55	171.701
3099.74	183.682
3101.93	178.329
3104.12	181.643
3106.31	181.623
3108.5	192.27
3110.68	168.251
3112.87	186.231
3115.06	180.878
3117.24	174.192
3119.43	185.506
3121.61	175.486
3123.79	190.8
3125.98	182.114
3128.16	193.428
3130.34	184.742
3132.52	178.055
3134.7	186.703
3136.88	182.016
3139.05	187.997
3141.23	185.977
3143.41	177.958
3145.58	189.272
3147.76	197.919
3149.93	182.566
3152.11	199.213
3154.28	187.193
3156.45	186.507
3158.63	183.154
3160.8	184.468
3162.97	187.115
3165.14	199.096
3167.3	189.076
3169.47	197.057
3171.64	199.037
3173.81	191.684
3175.97	188.331
3178.14	200.978
3180.3	197.626
3182.47	202.939
3184.63	198.253
3186.79	196.9
3188.95	199.547
3191.11	186.195
3193.28	202.175
3195.43	198.822
3197.59	196.803
3199.75	195.45
3201.91	206.097
3204.07	205.411
3206.22	202.058
3208.38	210.705
3210.53	203.352
3212.69	197.999
3214.84	201.313
3216.99	218.627
3219.14	199.274
3221.3	211.254
3223.45	193.901
3225.6	216.549
3227.75	219.196
3229.89	219.176
3232.04	226.49
3234.19	215.137
3236.34	223.118
3238.48	221.765
3240.62	227.745
3242.77	217.726
3244.91	224.373
3247.06	225.02
3249.2	230.334
3251.34	226.981
3253.48	232.961
3255.62	244.275
3257.76	251.589
3259.9	251.569
3262.04	251.55
3264.17	242.197
3266.31	244.177
3268.45	253.491
3270.58	249.472
3272.72	256.785
3274.85	263.433
3276.98	255.413
3279.12	281.393
3281.25	277.374
3283.38	282.021
3285.51	271.335
3287.64	287.315
3289.77	289.962
3291.89	295.276
3294.02	279.257
3296.15	299.237
3298.28	299.218
3300.4	308.531
3302.53	305.179
3304.65	312.492
3306.77	320.473
3308.9	300.453
3311.02	315.1
3313.14	328.414
3315.26	321.728
3317.38	331.042
3319.5	315.689
3321.62	325.669
3323.74	340.983
3325.85	337.63
3327.97	328.277
3330.08	352.258
3332.2	358.238
3334.31	358.219
3336.43	358.866
3338.54	362.846
3340.65	363.493
3342.77	364.141
3344.88	380.121
3346.99	384.102
3349.1	389.415
3351.21	387.396
3353.31	385.376
3355.42	410.69
3357.53	400.671
3359.63	399.318
3361.74	415.965
3363.84	423.279
3365.95	428.592
3368.05	405.239
3370.15	433.22
3372.26	430.534
3374.36	441.848
3376.46	447.828
3378.56	456.475
3380.66	429.789
3382.76	460.436
3384.85	480.417
3386.95	469.064
3389.05	470.377
3391.14	488.358
3393.24	487.005
3395.33	488.986
3397.43	513.633
3399.52	500.946
3401.61	507.594
3403.7	520.241
3405.79	539.554
3407.89	519.535
3409.98	511.515
3412.06	544.829
3414.15	545.476
3416.24	549.457
3418.33	535.437
3420.41	545.418
3422.5	560.065
3424.58	549.379
3426.67	563.359
3428.75	566.006
3430.83	578.653
3432.92	570.634
3435	583.948
3437.08	579.261
3439.16	591.909
3441.24	588.556
3443.32	595.869
3445.4	594.517
3447.47	621.164
3449.55	611.144
3451.63	609.125
3453.7	608.438
3455.78	608.419
3457.85	631.733
3459.92	619.713
3462	616.36
3464.07	623.007
3466.14	636.321
3468.21	648.968
3470.28	620.282
3472.35	630.929
3474.42	610.243
3476.49	638.223
3478.55	654.204
3480.62	648.851
3482.69	666.165
3484.75	638.812
3486.82	668.126
3488.88	663.44
3490.94	662.753
3493.01	676.734
3495.07	685.381
3497.13	680.028
3499.19	686.009
3501.25	666.656
3503.31	691.969
3505.37	702.617
3507.43	699.264
3509.48	697.244
3511.54	690.558
3513.59	693.872
3515.65	714.519
3517.7	725.166
3519.76	716.48
3521.81	695.127
3523.86	695.107
3525.92	700.421
3527.97	717.735
3530.02	713.049
3532.07	725.696
3534.12	737.676
3536.16	727.657
3538.21	733.637
3540.26	744.951
3542.31	750.932
3544.35	741.579
3546.4	738.226
3548.44	736.873
3550.49	770.187
3552.53	764.834
3554.57	766.148
3556.61	750.128
3558.65	790.109
3560.69	759.422
3562.73	782.07
3564.77	803.383
3566.81	787.364
3568.85	798.678
3570.89	811.991
3572.92	793.305
3574.96	822.619
3576.99	811.266
3579.03	834.58
3581.06	852.56
3583.1	816.541
3585.13	827.188
3587.16	839.835
3589.19	829.816
3591.22	818.463
3593.25	833.11
3595.28	835.09
3597.31	824.404
3599.34	815.051
3601.36	843.032
3603.39	840.345
3605.42	858.326
3607.44	858.306
3609.47	860.287
3611.49	854.267
3613.51	873.581
3615.53	879.562
3617.56	868.209
3619.58	902.856
3621.6	862.17
3623.62	882.15
3625.64	858.797
3627.66	904.778
3629.67	886.091
3631.69	895.405
3633.71	886.052
3635.72	863.366
3637.74	872.68
3639.75	881.327
3641.77	885.307
3643.78	903.955
3645.79	901.935
3647.8	883.916
3649.82	886.563
3651.83	884.543
3653.84	897.19
3655.85	901.837
3657.85	921.818
3659.86	909.132
3661.87	889.112
3663.88	876.426
3665.88	911.073
3667.89	890.387
3669.89	918.367
3671.9	900.348
3673.9	864.995
3675.9	886.309
3677.9	867.622
3679.91	880.27
3681.91	896.917
3683.91	892.231
3685.91	870.211
3687.9	872.858
3689.9	868.839
3691.9	877.486
3693.9	851.466
3695.89	860.78
3697.89	850.094
3699.88	862.074
3701.88	837.388
3703.87	834.035
3705.86	845.349
3707.86	852.663
3709.85	837.31
3711.84	843.29
3713.83	855.937
3715.82	847.918
3717.81	830.565
3719.8	811.879
3721.78	819.859
3723.77	827.173
3725.76	821.154
3727.74	828.467
3729.73	811.781
3731.71	805.095
3733.7	799.742
3735.68	778.389
3737.66	797.703
3739.64	793.683
3741.62	794.331
3743.61	790.311
3745.58	770.958
3747.56	787.605
3749.54	788.252
3751.52	778.233
3753.5	751.547
3755.47	746.86
3757.45	748.174
3759.43	760.155
3761.4	775.469
3763.37	756.782
3765.35	752.763
3767.32	737.41
3769.29	742.724
3771.26	754.037
3773.24	726.685
3775.21	737.332
3777.17	727.979
3779.14	733.293
3781.11	753.273
3783.08	735.92
3785.05	719.234
3787.01	707.215
3788.98	735.862
3790.94	723.842
3792.91	740.489
3794.87	715.803
3796.83	711.117
3798.8	722.431
3800.76	724.411
3802.72	733.725
3804.68	725.039
3806.64	712.352
3808.6	703
3810.56	715.647
3812.51	714.961
3814.47	719.608
3816.43	726.255
3818.38	699.569
3820.34	713.549
3822.29	722.863
3824.25	751.51
3826.2	703.49
3828.16	724.804
3830.11	731.451
3832.06	716.098
3834.01	696.079
3835.96	703.393
3837.91	709.373
3839.86	716.02
3841.81	721.334
3843.75	714.648
3845.7	709.962
3847.65	712.609
3849.59	707.256
3851.54	727.903
3853.48	723.884
3855.43	721.864
3857.37	719.178
3859.31	712.492
3861.25	723.805
3863.2	715.786
3865.14	715.1
3867.08	709.747
3869.01	738.394
3870.95	719.708
3872.89	717.021
3874.83	732.335
3876.77	733.649
3878.7	730.963
3880.64	716.277
3882.57	730.924
3884.51	731.571
3886.44	721.551
3888.37	718.198
3890.31	748.179
3892.24	731.493
3894.17	742.14
3896.1	714.12
3898.03	720.101
3899.96	721.415
3901.89	746.062
3903.81	726.709
3905.74	720.689
3907.67	747.336
3909.59	743.317
3911.52	723.964
3913.44	704.611
3915.37	727.925
3917.29	738.572
3919.21	751.219
3921.14	735.866
3923.06	726.513
3924.98	734.494
3926.9	737.141
3928.82	723.121
3930.74	720.435
3932.66	705.082
3934.57	719.063
3936.49	719.71
3938.41	726.357
3940.32	737.004
3942.24	714.318
3944.15	745.632
3946.07	721.612
3947.98	721.593
3949.89	728.907
3951.8	710.887
3953.72	719.534
3955.63	714.181
3957.54	717.495
3959.45	729.476
3961.36	701.456
3963.26	724.77
3965.17	714.75
3967.08	704.731
3968.98	708.711
3970.89	692.692
3972.79	702.672
3974.7	693.986
3976.6	692.633
3978.51	670.614
3980.41	703.927
3982.31	691.241
3984.21	691.888
3986.11	682.535
3988.01	677.849
3989.91	672.496
3991.81	669.81
3993.71	676.457
3995.61	675.104
3997.51	663.751
3999.4	667.065
