#Acq. time (s)=	20
#Accumulations=	4
#Range (cm-¹)=	60...4000
#Windows=	3
#Auto scanning=	Off
#Autofocus=	Off
#AutoExposure=	Off
#Spike filter=	Multiple accum.
#Delay time (s)=	0
#Binning=	1
#Readout mode=	Signal
#DeNoise=	Off
#ICS correction=	Off
#Dark correction=	Off
#Inst. Process=	Off
#Detector Gain=	Best Dynamic Range
#Detector ADC=	45 kHz       
#Detector temperature (°C)=	-60.1
#Instrument=	XploRA Plus
#Detector=	Syncerity OE
#Objective=	x50_VIS_LWD
#Grating=	1200 (750nm)
#Filter=	50%
#Laser=	638nm_Edge
#Slit (µm)=	100 
#Hole (µm)=	300 
#Temperature=	0
#StageXY=	75x50mm Scan+
#StageZ=	Z motor
#X (µm)=	0
#Y (µm)=	0
#Z (µm)=	43.1
#Full time(mm:ss)=	4:14
#Project=	
#Sample=	
#Site=	
#Title=	OlivinePeridote_15_25_46_2026_03_30_4_20 s_638nm_Edge_1200 (750nm)_x50_VIS_LWD_100 µm_300 µm_50%
#Remark=	
#Date=	30.03.2026 15:26
#Acquired=	30.03.2026 15:26:12
#AxisType[0]=Intens
#AxisUnit[0]=Cnt
#AxisType[1]=Spectr
#AxisUnit[1]=1/cm
62.2295	3379.67
64.3928	3276.68
66.5569	3126.36
68.719	3168.04
70.882	2915.06
73.0428	3077.4
75.2031	2932.42
77.3628	2808.76
79.5219	2977.11
81.6818	2876.13
83.8397	2722.47
85.997	2733.49
88.1522	2629.17
90.3083	2666.18
92.4638	2596.53
94.6187	2547.54
96.773	2687.22
98.9252	2474.91
101.078	2646.59
103.231	2461.6
105.381	2492.61
107.533	2570.29
109.682	2437.31
111.831	2490.99
113.98	2433.34
116.128	2469.02
118.274	2535.36
120.421	2789.71
122.566	3108.73
124.712	3933.07
126.856	5175.42
129	5742.44
131.143	5492.12
133.286	4627.8
135.428	3565.48
137.57	2985.16
139.709	2796.84
141.85	2719.85
143.988	2693.53
146.127	2641.88
148.264	2692.89
150.402	2588.58
152.538	2576.26
154.674	2548.6
156.81	2604.95
158.944	2530.63
161.078	2464.98
163.211	2562.66
165.343	2469.01
167.475	2546.69
169.606	2575.7
171.737	2543.38
173.866	2641.73
175.995	2652.08
178.124	2721.09
180.253	2786.77
182.379	2856.45
184.506	3002.13
186.631	3129.81
188.756	3350.16
190.881	3549.18
193.004	3933.52
195.127	4223.2
197.251	4602.88
199.373	5086.56
201.494	5616.91
203.614	6075.93
205.734	6396.27
207.853	6496.62
209.971	6390.3
212.089	6129.98
214.206	5735
216.323	5212.68
218.438	4819.02
220.554	4321.37
222.668	3983.72
224.783	3670.07
226.895	3428.41
229.007	3308.76
231.12	3137.11
233.231	3001.46
235.341	3031.14
237.451	2808.82
239.56	2735.83
241.669	2707.51
243.777	2646.53
245.884	2618.87
247.991	2587.22
250.096	2574.24
252.202	2611.25
254.307	2545.6
256.41	2590.61
258.514	2607.62
260.616	2683.97
262.719	2871.65
264.82	2960
266.92	2968.35
269.021	2794.69
271.12	2597.71
273.219	2479.39
275.317	2399.74
277.414	2419.42
279.511	2358.43
281.607	2320.11
283.701	2278.46
285.797	2314.81
287.891	2317.82
289.984	2333.5
292.077	2307.18
294.17	2302.86
296.261	2376.54
298.351	2317.56
300.442	2313.24
302.531	2282.92
304.62	2287.27
306.708	2330.95
308.795	2331.29
310.882	2267.64
312.968	2355.32
315.054	2273
317.139	2311.35
319.224	2303.7
321.308	2294.05
323.39	2283.73
325.473	2264.74
327.553	2256.42
329.635	2272.77
331.715	2256.45
333.794	2271.46
335.874	2253.81
337.952	2254.16
340.03	2278.51
342.107	2266.19
344.183	2311.87
346.259	2292.21
348.334	2313.89
350.409	2464.91
352.483	2763.26
354.557	3108.94
356.628	3170.62
358.701	2973.63
360.771	2737.31
362.842	2486.33
364.912	2403.34
366.982	2363.02
369.05	2339.37
371.118	2307.72
373.185	2256.73
375.251	2302.41
377.317	2297.42
379.383	2281.11
381.448	2268.12
383.512	2271.8
385.576	2275.48
387.639	2304.49
389.7	2350.18
391.762	2487.19
393.822	2527.54
395.883	2533.88
397.942	2501.56
400.001	2588.58
402.06	2647.59
404.117	2635.27
406.174	2564.95
408.23	2504.64
410.286	2362.32
412.341	2322.66
414.396	2335.68
416.45	2330.69
418.502	2337.71
420.554	2344.05
422.607	2358.4
424.657	2344.08
426.708	2350.43
428.758	2360.78
430.808	2395.12
432.856	2416.8
434.904	2430.48
436.951	2500.17
438.997	2497.85
441.043	2544.19
443.089	2605.21
445.133	2676.22
447.178	2913.9
449.222	3048.25
451.263	3287.26
453.306	3762.28
455.348	4315.96
457.388	5640.31
459.429	7940.65
461.468	11791
463.507	15891.3
465.545	17615
467.584	16466.7
469.621	13534.4
471.657	9900.07
473.693	7039.08
475.727	5503.43
477.761	4587.78
479.796	4038.13
481.829	3681.81
483.861	3467.49
485.893	3341.84
487.924	3216.18
489.955	3151.86
491.985	3002.21
494.014	2881.22
496.044	2802.91
498.072	2770.59
500.099	2705.6
502.126	2679.95
504.152	2667.63
506.178	2565.98
508.201	2612.32
510.226	2596
512.25	2647.02
514.272	2628.7
516.295	2647.71
518.316	2655.39
520.338	2627.74
522.358	2550.75
524.378	2517.1
526.396	2452.12
528.416	2432.46
530.434	2430.81
532.451	2402.49
534.467	2422.17
536.483	2407.19
538.499	2414.87
540.514	2355.21
542.527	2426.23
544.541	2374.58
546.553	2422.92
548.566	2424.6
550.577	2371.62
552.588	2363.96
554.599	2368.31
556.609	2357.33
558.618	2356.34
560.626	2334.69
562.634	2348.37
564.64	2301.38
566.646	2345.06
568.653	2345.41
570.657	2321.76
572.662	2334.11
574.667	2327.79
576.67	2333.47
578.672	2346.48
580.675	2344.16
582.676	2318.51
584.677	2360.86
586.677	2347.2
588.676	2334.88
590.675	2333.23
592.674	2314.91
594.671	2351.26
596.668	2330.94
598.665	2321.95
600.66	2308.3
602.656	2320.65
604.65	2314.33
606.643	2304.01
608.637	2297.02
610.63	2315.37
612.622	2325.05
614.613	2314.73
616.604	2295.75
618.594	2328.76
620.584	2283.11
622.571	2305.46
624.56	2320.47
626.548	2280.15
628.534	2299.83
630.52	2314.85
632.507	2334.53
634.491	2341.54
636.476	2333.89
638.459	2290.9
640.444	2317.25
642.426	2284.26
644.407	2313.28
646.388	2302.29
648.369	2295.31
650.35	2278.32
652.328	2290.67
654.308	2338.35
656.286	2272.69
658.264	2435.04
660.24	2414.72
662.216	2379.07
664.193	2316.75
666.168	2247.1
668.143	2319.45
670.117	2291.13
672.089	2310.81
674.061	2314.49
676.034	2284.84
678.006	2279.85
679.975	2326.86
681.946	2277.21
683.915	2346.89
685.884	2361.24
687.853	2337.59
689.82	2349.93
691.787	2380.95
693.753	2431.29
695.719	2428.98
697.684	2470.66
699.649	2463
701.612	2419.35
703.576	2397.03
705.539	2348.71
707.5	2375.06
709.461	2371.41
711.423	2323.09
713.383	2345.44
715.342	2339.78
717.301	2309.46
719.259	2341.81
721.217	2362.82
723.174	2353.17
725.131	2334.19
727.087	2309.87
729.041	2313.55
730.996	2318.56
732.95	2301.58
734.904	2327.26
736.856	2278.94
738.808	2322.62
740.761	2308.96
742.711	2320.65
744.662	2273.66
746.611	2300.67
748.559	2317.02
750.508	2322.7
752.456	2309.05
754.403	2290.73
756.35	2316.41
758.295	2295.42
760.241	2293.11
762.186	2329.45
764.13	2265.13
766.073	2256.81
768.017	2293.83
769.959	2362.84
771.9	2296.52
773.841	2302.2
775.782	2353.22
777.722	2353.56
779.66	2325.91
781.6	2356.26
783.537	2335.94
785.474	2346.29
787.412	2355.3
789.348	2366.32
791.283	2377.33
793.218	2436.34
795.152	2425.36
797.086	2467.71
799.02	2440.05
800.951	2444.4
802.883	2517.41
804.814	2582.43
806.745	2629.44
808.675	2719.79
810.604	2709.47
812.534	2661.82
814.462	2554.17
816.389	2495.85
818.316	2481.53
820.243	2414.54
822.168	2364.89
824.093	2326.57
826.018	2364.92
827.941	2357.26
829.865	2359.61
831.787	2379.29
833.709	2358.31
835.632	2337.99
837.552	2359.67
839.473	2294.01
841.392	2346.36
843.311	2362.71
845.229	2361.06
847.147	2329.4
849.065	2333.75
850.981	2352.1
852.897	2331.11
854.812	2324.79
856.727	2331.14
858.642	2340.82
860.555	2317.84
862.468	2295.52
864.38	2338.53
866.292	2288.21
868.203	2298.56
870.113	2299.57
872.024	2315.25
873.932	2308.27
875.842	2325.28
877.75	2301.63
879.657	2340.64
881.565	2310.32
883.471	2294.67
885.376	2313.02
887.282	2354.03
889.186	2313.05
891.089	2341.39
892.993	2317.07
894.896	2318.75
896.797	2331.1
898.7	2297.45
900.6	2301.8
902.5	2293.48
904.399	2299.82
906.298	2322.84
908.197	2313.19
910.095	2280.2
911.992	2277.88
913.889	2289.56
915.786	2280.58
917.68	2300.92
919.576	2293.94
921.47	2321.62
923.363	2271.3
925.257	2290.98
927.149	2308.66
929.041	2287.67
930.932	2292.69
932.823	2289.04
934.713	2278.72
936.602	2297.06
938.491	2236.74
940.379	2292.42
942.267	2249.44
944.154	2275.79
946.04	2258.13
947.927	2286.48
949.812	2302.16
951.696	2252.51
953.58	2254.19
955.463	2225.87
957.346	2279.55
959.229	2257.9
961.11	2207.58
962.991	2221.93
964.871	2234.27
966.752	2207.29
968.631	2252.97
970.51	2228.65
972.388	2207
974.265	2202.01
976.142	2202.36
978.019	2213.37
979.893	2240.39
981.769	2216.07
983.643	2179.75
985.518	2240.76
987.391	2245.78
989.263	2205.46
991.135	2180.47
993.006	2180.15
994.877	2222.5
996.748	2200.18
998.618	2164.53
1000.49	2188.21
1002.35	2201.89
1004.22	2215.57
1006.09	2183.25
1007.96	2181.6
1009.82	2189.94
1011.69	2198.96
1013.55	2179.31
1015.42	2174.32
1017.28	2182
1019.15	2170.35
1021.01	2203.36
1022.87	2179.04
1024.73	2225.39
1026.59	2169.07
1028.45	2198.75
1030.31	2167.77
1032.17	2200.78
1034.03	2190.46
1035.89	2193.47
1037.75	2207.82
1039.6	2212.17
1041.46	2219.85
1043.31	2212.2
1045.17	2193.88
1047.02	2168.22
1048.88	2195.24
1050.73	2249.59
1052.58	2166.6
1054.43	2204.28
1056.28	2176.63
1058.14	2156.31
1059.99	2181.32
1061.84	2211.67
1063.68	2250.68
1065.53	2189.03
1067.38	2196.05
1069.23	2252.39
1071.08	2231.41
1072.92	2232.42
1074.77	2208.1
1076.61	2207.12
1078.46	2287.46
1080.3	2299.14
1082.14	2352.82
1083.99	2401.84
1085.83	2320.85
1087.67	2297.87
1089.51	2250.88
1091.35	2226.56
1093.19	2165.58
1095.03	2162.59
1096.87	2140.27
1098.7	2183.28
1100.54	2144.3
1102.38	2186.65
1104.21	2134.33
1106.05	2128.67
1107.88	2160.35
1109.72	2156.7
1111.55	2136.38
1113.39	2114.06
1115.22	2151.74
1117.05	2158.09
1118.88	2145.11
1120.71	2159.45
1122.54	2136.47
1124.37	2156.81
1126.2	2158.5
1128.03	2159.51
1129.86	2149.19
1131.69	2178.2
1133.51	2145.88
1135.34	2156.23
1137.16	2159.25
1138.99	2196.93
1140.81	2159.27
1142.64	2160.95
1144.46	2213.3
1146.28	2132.98
1148.1	2166.66
1149.93	2178.34
1151.75	2180.69
1153.57	2231.71
1155.39	2250.72
1157.21	2319.07
1159.03	2370.08
1160.84	2367.76
1162.66	2400.78
1164.48	2323.79
1166.29	2282.14
1168.11	2220.48
1169.93	2167.5
1171.74	2139.18
1173.55	2122.19
1175.37	2117.21
1177.18	2103.55
1178.99	2057.24
1180.8	2083.58
1182.61	2123.26
1184.42	2089.61
1186.24	2047.96
1188.04	2080.31
1189.85	2117.99
1191.66	2064.33
1193.47	2094.68
1195.28	2071.69
1197.08	2064.04
1198.89	2086.39
1200.69	2078.74
1202.5	2093.08
1204.3	2042.1
1206.11	2070.45
1207.91	2102.79
1209.71	2101.14
1211.51	2086.82
1213.31	2088.5
1215.12	2086.18
1216.92	2079.2
1218.72	2121.54
1220.51	2131.22
1222.31	2077.57
1224.11	2095.92
1225.91	2108.93
1227.7	2098.61
1229.5	2112.96
1231.3	2106.64
1233.09	2090.32
1234.88	2051.34
1236.68	2113.02
1238.47	2125.37
1240.26	2079.05
1242.06	2086.73
1243.85	2057.74
1245.64	2052.75
1247.43	2099.1
1249.22	2052.12
1251.01	2061.13
1252.8	2095.48
1254.59	2067.82
1256.37	2093.51
1258.16	2082.52
1259.95	2085.53
1261.73	2079.21
1263.52	2094.9
1265.3	2044.58
1267.08	2075.59
1268.87	2077.94
1270.65	2060.95
1272.43	2056.63
1274.22	2074.31
1276	2049.99
1277.78	2065.01
1279.56	2036.69
1281.34	2061.04
1283.12	2048.72
1284.89	2033.73
1286.67	2042.08
1288.45	2047.76
1290.23	2051.44
1292	2050.45
1293.78	2016.13
1295.55	2057.15
1297.33	2040.16
1299.1	2020.51
1300.87	2032.86
1302.65	2046.54
1304.42	2044.88
1306.19	2073.9
1307.96	2045.58
1309.73	2047.26
1311.5	2047.61
1313.27	2064.62
1315.04	2039.64
1316.81	2073.32
1318.58	2034.33
1320.34	2014.01
1322.11	2004.36
1323.87	2018.04
1325.64	2015.05
1327.4	2043.4
1329.17	1986.41
1330.93	2034.76
1332.7	2015.78
1334.46	2013.46
1336.22	2036.47
1337.98	2034.82
1339.74	2001.17
1341.5	1996.18
1343.26	2019.86
1345.02	2000.87
1346.78	2003.89
1348.54	2025.57
1350.29	2021.25
1352.05	1970.93
1353.81	1983.28
1355.56	1974.29
1357.32	2012.64
1359.07	1992.32
1360.83	2004.67
1362.58	1985.68
1364.33	1982.03
1366.08	2012.38
1367.84	2006.06
1369.59	1986.4
1371.34	1990.75
1373.09	1970.43
1374.84	1998.78
1376.59	2001.13
1378.34	2000.14
1380.08	1965.15
1381.83	1997.5
1383.58	1992.52
1385.32	1972.2
1387.07	1975.21
1388.81	1948.22
1390.56	1960.57
1392.3	1941.59
1394.05	1955.93
1395.79	1960.28
1397.53	1943.29
1399.27	1989.64
1401.01	1967.99
1402.75	1951
1404.49	1992.02
1406.23	1927.03
1407.97	1965.38
1409.71	1985.06
1411.45	1954.07
1413.19	1950.42
1414.92	1952.1
1416.66	1977.78
1418.39	1946.8
1420.13	1917.14
1421.86	1969.49
1423.6	1973.17
1425.33	1931.52
1427.06	1965.2
1428.8	1930.21
1430.53	1965.23
1432.26	1938.24
1433.99	1933.92
1435.72	1952.27
1437.45	1931.28
1439.18	1925.63
1440.9	1944.65
1442.63	1944.33
1444.36	1954.67
1446.09	1912.35
1447.81	1938.7
1449.54	1923.72
1451.26	1938.06
1452.99	1931.74
1454.71	1930.09
1456.43	1916.44
1458.16	1908.12
1459.88	1944.47
1461.6	1911.48
1463.32	1909.16
1465.04	1907.51
1466.76	1923.86
1468.48	1904.2
1470.2	1898.55
1471.92	1920.9
1473.64	1911.91
1475.35	1875.59
1477.07	1875.27
1478.79	1922.29
1480.5	1891.97
1482.22	1884.32
1483.93	1871.33
1485.64	1835.01
1487.36	1884.69
1489.07	1866.37
1490.78	1883.39
1492.49	1889.07
1494.21	1872.08
1495.92	1873.09
1497.63	1853.44
1499.34	1842.46
1501.04	1863.47
1502.75	1865.82
1504.46	1923.5
1506.17	1865.18
1507.87	1909.53
1509.58	1889.87
1511.29	1884.22
1512.99	1851.24
1514.7	1879.58
1516.4	1871.26
1518.1	1847.61
1519.81	1857.96
1521.51	1863.64
1523.21	1870.65
1524.91	1880.33
1526.61	1870.01
1528.31	1873.03
1530.01	1847.38
1531.71	1853.72
1533.41	1858.74
1535.11	1877.08
1536.8	1855.43
1538.5	1871.78
1540.2	1854.13
1541.89	1835.81
1543.59	1825.49
1545.28	1817.17
1546.98	1842.85
1548.67	1842.53
1550.36	1827.54
1552.06	1865.89
1553.75	1832.24
1555.44	1863.25
1557.13	1835.6
1558.82	1869.95
1560.51	1856.96
1562.2	1853.98
1563.89	1850.99
1565.58	1840.67
1567.26	1849.68
1568.95	1833.37
1570.64	1823.05
1572.32	1836.06
1574.01	1840.41
1575.69	1820.09
1577.38	1840.44
1579.06	1818.12
1580.74	1799.8
1582.43	1816.14
1584.11	1837.16
1585.79	1816.84
1587.47	1837.85
1589.15	1817.53
1590.83	1807.21
1592.51	1840.23
1594.19	1790.58
1595.87	1824.26
1597.55	1783.94
1599.22	1789.62
1600.9	1800.63
1602.58	1794.98
1604.25	1771.33
1605.93	1790.34
1607.6	1796.02
1609.27	1761.7
1610.95	1800.72
1612.62	1797.73
1614.29	1780.74
1615.97	1805.76
1617.64	1803.44
1619.31	1762.45
1620.98	1766.13
1622.65	1779.81
1624.32	1753.5
1625.98	1752.51
1627.65	1770.19
1629.32	1762.54
1630.99	1756.22
1632.65	1730.57
1634.32	1755.58
1635.98	1757.93
1637.65	1777.61
1639.31	1742.62
1640.98	1710.97
1642.64	1766.65
1644.3	1765
1645.97	1792.68
1647.63	1733.69
1649.29	1738.71
1650.95	1715.05
1652.61	1756.07
1654.27	1729.75
1655.93	1734.1
1657.58	1747.78
1659.24	1766.79
1660.9	1743.8
1662.56	1744.82
1664.21	1765.17
1665.87	1743.51
1667.52	1761.86
1669.18	1752.21
1670.83	1747.89
1672.49	1746.24
1674.14	1729.25
1675.79	1734.26
1677.44	1734.61
1679.09	1743.62
1680.75	1741.31
1682.39	1728.32
1684.05	1736
1685.69	1706.35
1687.34	1721.36
1688.99	1713.71
1690.64	1733.39
1692.29	1727.74
1693.93	1750.75
1695.58	1715.1
1697.22	1711.45
1698.87	1719.13
1700.51	1703.47
1702.16	1701.15
1703.8	1689.5
1705.44	1722.52
1707.09	1714.86
1708.73	1719.88
1710.37	1728.22
1712.01	1702.57
1713.65	1654.92
1715.29	1634.6
1716.93	1672.95
1718.57	1659.96
1720.2	1668.98
1721.84	1677.99
1723.48	1673
1725.12	1664.02
1726.75	1670.37
1728.39	1646.71
1730.02	1671.06
1731.66	1652.74
1733.29	1654.42
1734.92	1628.1
1736.56	1654.45
1738.19	1673.46
1739.82	1611.14
1741.45	1644.16
1743.08	1634.51
1744.71	1636.85
1746.34	1615.87
1747.97	1624.88
1749.6	1655.23
1751.23	1646.24
1752.85	1620.59
1754.48	1615.6
1756.11	1610.62
1757.73	1654.3
1759.36	1593.31
1760.98	1628.33
1762.61	1632.57
1764.23	1623.29
1765.85	1611.09
1767.48	1596.45
1769.1	1628.65
1770.72	1604.5
1772.34	1596.08
1773.96	1588.36
1775.58	1618.51
1777.2	1620.02
1778.82	1594.96
1780.44	1598.52
1782.06	1592.19
1783.67	1593.07
1785.29	1595.24
1786.91	1588.02
1788.52	1569.62
1790.14	1569.46
1791.75	1569.04
1793.37	1561.32
1794.98	1558.22
1796.59	1580.01
1798.21	1569.86
1799.82	1577.07
1801.43	1565.65
1803.04	1532.79
1804.65	1567.53
1806.26	1559.48
1807.87	1556.85
1809.48	1537.59
1811.09	1539.56
1812.7	1542.78
1814.3	1532.66
1815.91	1543.75
1817.52	1538.05
1819.12	1517.51
1820.73	1524.94
1822.34	1523.42
1823.94	1502.71
1825.54	1525.11
1827.15	1482.28
1828.75	1508.82
1830.35	1496.89
1831.95	1482.51
1833.55	1492.52
1835.15	1470.32
1836.75	1471.21
1838.35	1478.09
1839.95	1473.26
1841.55	1482.3
1843.15	1466.85
1844.75	1472.61
1846.34	1458.22
1847.94	1454.99
1849.54	1470.74
1851.13	1467.37
1852.73	1455.41
1854.32	1448.17
1855.92	1456.61
1857.51	1449.77
1859.1	1441.75
1860.69	1442.3
1862.29	1448.22
1863.88	1440.5
1865.47	1442.57
1867.06	1440.05
1868.65	1448.13
1870.24	1435.11
1871.83	1438.01
1873.41	1434.14
1875	1427.19
1876.59	1444.35
1878.18	1434.62
1879.76	1434.08
1881.35	1432.01
1882.93	1428.23
1884.52	1422.78
1886.1	1417.07
1887.68	1418.2
1889.27	1413.76
1890.85	1416.78
1892.43	1421.77
1894.01	1406.97
1895.59	1397.73
1897.18	1425.9
1898.75	1419.55
1900.33	1439.04
1901.91	1411.97
1903.49	1404.5
1905.07	1406.19
1906.65	1413.82
1908.22	1422.42
1909.8	1440.37
1911.38	1423.78
1912.95	1410.27
1914.53	1408.08
1916.1	1388.76
1917.67	1406.59
1919.25	1414.71
1920.82	1396.88
1922.39	1375.94
1923.96	1377.55
1925.53	1392.12
1927.1	1393.15
1928.68	1383.81
1929.45	1379.38
1931.06	1395.14
1932.67	1358.9
1934.28	1387.99
1935.88	1391.08
1937.49	1391.51
1939.1	1375.27
1940.7	1381.7
1942.31	1356.79
1943.92	1370.55
1945.52	1359.64
1947.13	1361.4
1948.73	1375.83
1950.34	1392.93
1951.94	1353.35
1953.54	1353.11
1955.15	1364.87
1956.75	1353.3
1958.35	1335.73
1959.95	1347.49
1961.55	1363.91
1963.15	1369.67
1964.75	1368.1
1966.35	1355.19
1967.95	1342.95
1969.55	1338.05
1971.15	1358.47
1972.74	1334.9
1974.34	1353.99
1975.94	1351.75
1977.53	1344.85
1979.13	1339.28
1980.73	1327.04
1982.32	1352.8
1983.91	1352.56
1985.51	1340.32
1987.1	1336.74
1988.7	1362.5
1990.29	1355.6
1991.88	1358.02
1993.47	1341.12
1995.06	1358.88
1996.65	1355.3
1998.24	1335.73
1999.83	1345.49
2001.42	1332.58
2003.01	1330.34
2004.6	1338.77
2006.19	1338.53
2007.78	1343.63
2009.36	1350.05
2010.95	1349.15
2012.54	1340.91
2014.12	1330
2015.71	1321.76
2017.29	1334.85
2018.88	1332.61
2020.46	1347.71
2022.04	1322.8
2023.63	1325.89
2025.21	1343.65
2026.79	1336.75
2028.37	1332.51
2029.95	1332.93
2031.53	1347.36
2033.12	1324.45
2034.7	1321.55
2036.27	1304.64
2037.85	1331.73
2039.43	1313.5
2041.01	1329.26
2042.59	1321.02
2044.16	1310.11
2045.74	1311.2
2047.32	1322.96
2048.89	1296.72
2050.47	1309.15
2052.04	1295.58
2053.62	1286
2055.19	1289.1
2056.77	1284.86
2058.34	1317.28
2059.91	1300.38
2061.48	1314.14
2063.06	1279.23
2064.63	1293.66
2066.2	1290.75
2067.77	1319.84
2069.34	1316.94
2070.91	1277.37
2072.48	1251.79
2074.04	1258.89
2075.61	1277.98
2077.18	1275.07
2078.75	1284.83
2080.31	1317.93
2081.88	1283.02
2083.45	1272.11
2085.01	1247.87
2086.58	1284.3
2088.14	1273.39
2089.7	1287.82
2091.27	1302.25
2092.83	1255.34
2094.39	1263.77
2095.96	1248.86
2097.52	1271.96
2099.08	1261.05
2100.64	1250.81
2102.2	1250.57
2103.76	1291
2105.32	1253.42
2106.88	1251.85
2108.44	1240.28
2110	1268.7
2111.55	1255.13
2113.11	1271.56
2114.67	1257.32
2116.23	1274.41
2117.78	1255.5
2119.34	1271.93
2120.89	1255.69
2122.45	1271.52
2124	1257.35
2125.55	1263.17
2127.11	1257
2128.66	1221.49
2130.21	1249.99
2131.76	1252.48
2133.32	1250.98
2134.87	1238.8
2136.42	1255.96
2137.97	1264.46
2139.52	1256.95
2141.07	1244.11
2142.62	1251.27
2144.16	1241.1
2145.71	1219.59
2147.26	1243.42
2148.81	1236.58
2150.35	1222.41
2151.9	1232.24
2153.44	1206.06
2154.99	1217.22
2156.53	1243.72
2158.08	1238.21
2159.62	1239.37
2161.17	1221.87
2162.71	1235.03
2164.25	1192.85
2165.79	1228.01
2167.34	1210.51
2168.88	1201
2170.42	1216.16
2171.96	1187.99
2173.5	1185.15
2175.04	1211.64
2176.58	1203.47
2178.11	1193.96
2179.65	1201.79
2181.19	1192.95
2182.73	1166.78
2184.26	1177.27
2185.8	1199.77
2187.34	1192.26
2188.87	1207.42
2190.41	1178.58
2191.94	1204.41
2193.48	1199.57
2195.01	1194.06
2196.54	1182.56
2198.07	1199.05
2199.61	1188.21
2201.14	1172.71
2202.67	1185.87
2204.2	1188.36
2205.73	1183.52
2207.26	1168.02
2208.79	1177.84
2210.32	1171.67
2211.85	1186.83
2213.38	1177.99
2214.91	1165.82
2216.43	1160.98
2217.96	1187.47
2219.49	1180.63
2221.01	1169.79
2222.54	1176.29
2224.06	1166.78
2225.59	1174.61
2227.11	1184.44
2228.64	1181.6
2230.16	1176.09
2231.68	1162.58
2233.21	1185.74
2234.73	1171.57
2236.25	1180.07
2237.77	1153.89
2239.29	1153.05
2240.81	1174.21
2242.33	1170.04
2243.85	1180.54
2245.37	1169.03
2246.89	1178.19
2248.41	1148.02
2249.93	1176.51
2251.44	1175.67
2252.96	1162.17
2254.48	1165.33
2255.99	1167.15
2257.51	1174.31
2259.02	1155.47
2260.54	1161.3
2262.05	1175.13
2263.57	1164.29
2265.08	1152.78
2266.59	1141.28
2268.1	1148.44
2269.62	1179.6
2271.13	1144.09
2272.64	1147.25
2274.15	1152.41
2275.66	1144.91
2277.17	1150.07
2278.68	1157.9
2280.19	1148.39
2281.7	1148.88
2283.2	1149.38
2284.71	1161.2
2286.22	1163.03
2287.73	1148.19
2289.23	1160.02
2290.74	1129.85
2292.24	1124.34
2293.75	1138.17
2295.25	1129.99
2296.76	1145.82
2298.26	1134.98
2299.76	1141.48
2301.27	1130.64
2302.77	1123.13
2304.27	1125.62
2305.77	1100.79
2307.27	1112.61
2308.77	1120.44
2310.28	1117.6
2311.77	1115.43
2313.27	1135.92
2314.77	1123.75
2316.27	1100.24
2317.77	1100.07
2319.27	1121.9
2320.76	1119.72
2322.26	1131.55
2323.76	1108.05
2325.25	1123.21
2326.75	1109.03
2328.24	1111.53
2329.74	1126.02
2331.23	1093.18
2332.73	1114.34
2334.22	1134.84
2335.71	1128
2337.2	1098.49
2338.7	1103.65
2340.19	1092.14
2341.68	1110.64
2343.17	1088.47
2344.66	1102.96
2346.15	1094.79
2347.64	1091.28
2349.13	1071.77
2350.62	1098.94
2352.1	1083.43
2353.59	1077.26
2355.08	1070.42
2356.56	1088.91
2358.05	1103.4
2359.54	1063.9
2361.02	1078.39
2362.51	1090.22
2363.99	1082.71
2365.48	1081.21
2366.96	1070.37
2368.44	1063.53
2369.93	1073.36
2371.41	1057.85
2372.89	1087.68
2374.37	1084.84
2375.85	1082.66
2377.33	1079.16
2378.81	1052.99
2380.29	1048.81
2381.77	1063.97
2383.25	1050.47
2384.73	1081.63
2386.21	1044.12
2387.69	1059.28
2389.16	1064.44
2390.64	1089.6
2392.12	1072.1
2393.59	1043.92
2395.07	1059.75
2396.54	1050.91
2398.02	1041.41
2399.49	1035.9
2400.96	1043.73
2402.44	1040.22
2403.91	1036.05
2405.38	1035.88
2406.85	1056.37
2408.33	1034.2
2409.8	1060.02
2411.27	1025.18
2412.74	1057.68
2414.21	1057.51
2415.68	1035.33
2417.15	1033.16
2418.62	1025.65
2420.08	1066.81
2421.55	1050.64
2423.02	1025.8
2424.49	1033.63
2425.95	1036.79
2427.42	1035.28
2428.88	1027.78
2430.35	1018.94
2431.81	1074.1
2433.28	1051.93
2434.74	1023.75
2436.21	1012.25
2437.67	1018.74
2439.13	1031.24
2440.59	1029.06
2442.05	1012.89
2443.52	1024.05
2444.98	1025.21
2446.44	998.371
2447.9	1026.87
2449.36	1022.03
2450.81	1045.19
2452.27	1016.35
2453.73	1034.17
2455.19	1018
2456.65	993.829
2458.1	1020.99
2459.56	1006.15
2461.02	983.31
2462.47	1020.47
2463.93	999.631
2465.38	1001.46
2466.84	995.286
2468.29	1003.11
2469.74	1018.94
2471.2	1014.77
2472.65	993.261
2474.1	970.422
2475.55	1012.25
2477.01	1014.08
2478.46	999.237
2479.91	1006.4
2481.36	991.558
2482.81	991.385
2484.26	992.546
2485.71	990.373
2487.15	989.534
2488.6	999.361
2490.05	994.521
2491.5	1014.35
2492.94	996.842
2494.39	992.003
2495.84	989.83
2497.28	1006.32
2498.73	997.485
2500.17	983.979
2501.61	981.806
2503.06	999.633
2504.5	984.794
2505.95	998.621
2507.39	1004.45
2508.83	1001.61
2510.27	994.102
2511.71	983.263
2513.15	975.09
2514.59	988.251
2516.03	994.745
2517.47	1004.57
2518.91	963.066
2520.35	996.893
2521.79	996.72
2523.23	987.881
2524.66	963.708
2526.1	984.869
2527.54	980.029
2528.97	991.856
2530.41	972.35
2531.84	992.844
2533.28	981.338
2534.71	965.832
2536.15	969.659
2537.58	986.153
2539.01	959.314
2540.45	952.474
2541.88	952.968
2543.31	993.462
2544.74	965.956
2546.17	957.116
2547.6	970.944
2549.04	965.438
2550.47	968.598
2551.89	952.425
2553.32	972.252
2554.75	978.08
2556.18	950.574
2557.61	983.068
2559.04	964.895
2560.46	972.722
2561.89	953.216
2563.31	943.043
2564.74	986.204
2566.17	961.364
2567.59	973.858
2569.01	963.019
2570.44	942.179
2571.86	975.34
2573.28	957.834
2574.71	950.328
2576.13	954.155
2577.55	961.982
2578.97	935.809
2580.39	964.303
2581.81	968.797
2583.23	935.291
2584.65	941.118
2586.07	955.612
2587.49	944.106
2588.91	937.266
2590.33	951.094
2591.74	950.921
2593.16	945.415
2594.58	939.909
2596	931.736
2597.41	935.563
2598.83	947.39
2600.24	941.884
2601.66	932.378
2603.07	946.205
2604.48	921.366
2605.9	939.193
2607.31	917.02
2608.72	928.181
2610.14	934.008
2611.55	948.502
2612.96	923.663
2614.37	944.823
2615.78	940.65
2617.19	945.144
2618.6	902.971
2620.01	926.132
2621.42	930.626
2622.83	933.786
2624.23	904.947
2625.64	932.108
2627.05	939.268
2628.46	910.429
2629.86	928.256
2631.27	923.417
2632.67	944.577
2634.08	927.071
2635.48	915.565
2636.89	920.725
2638.29	907.219
2639.69	909.046
2641.1	920.207
2642.5	922.701
2643.9	926.528
2645.3	889.689
2646.7	906.183
2648.11	908.677
2649.51	907.17
2650.91	906.998
2652.31	911.491
2653.71	903.985
2655.1	900.479
2656.5	907.64
2657.9	888.134
2659.3	904.628
2660.69	883.122
2662.09	884.949
2663.49	889.443
2664.88	901.937
2666.28	900.43
2667.67	885.591
2669.07	880.751
2670.46	884.579
2671.86	907.073
2673.25	878.233
2674.64	886.727
2676.04	883.888
2677.43	924.381
2678.82	886.875
2680.21	896.036
2681.6	871.197
2682.99	883.024
2684.38	862.184
2685.77	859.345
2687.16	874.505
2688.55	873.666
2689.94	864.827
2691.33	861.32
2692.71	873.148
2694.1	860.975
2695.49	866.802
2696.88	865.963
2698.26	885.123
2699.65	882.95
2701.03	868.111
2702.42	867.938
2703.8	868.432
2705.18	878.926
2706.57	876.753
2707.95	879.914
2709.33	874.408
2710.72	888.235
2712.1	850.729
2713.48	859.889
2714.86	857.05
2716.24	864.877
2717.62	877.371
2719	833.865
2720.38	856.359
2721.76	845.519
2723.14	870.013
2724.52	837.174
2725.89	858.334
2727.27	868.162
2728.65	873.989
2730.02	841.149
2731.4	876.31
2732.78	872.804
2734.15	851.298
2735.53	861.125
2736.9	872.952
2738.27	850.113
2739.65	854.607
2741.02	855.767
2742.39	820.928
2743.77	846.755
2745.14	867.916
2746.51	850.409
2747.88	850.237
2749.25	852.73
2750.62	822.558
2751.99	839.718
2753.36	821.545
2754.73	830.706
2756.1	837.2
2757.47	827.027
2758.84	832.188
2760.2	834.015
2761.57	832.509
2762.94	829.669
2764.3	841.497
2765.67	837.324
2767.03	839.818
2768.4	842.978
2769.76	830.806
2771.13	831.299
2772.49	833.793
2773.86	834.287
2775.22	840.781
2776.58	819.275
2777.94	834.435
2779.3	827.596
2780.67	835.423
2782.03	825.917
2783.39	817.744
2784.75	820.905
2786.11	847.399
2787.47	835.893
2788.83	840.387
2790.18	815.547
2791.54	809.374
2792.9	821.202
2794.26	839.695
2795.61	836.856
2796.97	818.017
2798.33	819.177
2799.68	821.671
2801.04	824.832
2802.39	817.326
2803.75	811.153
2805.1	822.313
2806.45	822.807
2807.81	809.968
2809.16	825.128
2810.51	812.289
2811.86	786.783
2813.22	821.943
2814.57	824.437
2815.92	806.264
2817.27	800.758
2818.62	799.919
2819.97	798.413
2821.32	814.907
2822.67	802.734
2824.01	775.228
2825.36	793.722
2826.71	796.216
2828.06	809.376
2829.4	802.537
2830.75	805.031
2832.1	778.191
2833.44	816.018
2834.79	797.846
2836.13	789.673
2837.48	784.833
2838.82	797.327
2840.16	829.154
2841.51	801.648
2842.85	806.809
2844.19	825.303
2845.53	827.13
2846.87	816.291
2848.22	810.118
2849.56	815.945
2850.9	797.106
2852.24	812.266
2853.58	802.093
2854.92	799.921
2856.25	800.414
2857.59	804.908
2858.93	815.402
2860.27	815.229
2861.6	806.39
2862.94	806.217
2864.28	782.044
2865.61	813.872
2866.95	797.699
2868.28	808.193
2869.62	806.687
2870.95	804.514
2872.29	797.674
2873.62	792.168
2874.95	802.662
2876.29	797.156
2877.62	788.317
2878.95	788.144
2880.28	795.971
2881.61	793.132
2882.94	808.292
2884.27	806.786
2885.6	797.28
2886.93	793.774
2888.26	792.268
2889.59	803.428
2890.92	791.256
2892.25	779.75
2893.57	782.91
2894.9	798.737
2896.23	804.564
2897.55	794.392
2898.88	790.886
2900.2	770.713
2901.53	783.873
2902.85	785.034
2904.18	784.861
2905.5	764.022
2906.83	773.182
2908.15	749.01
2909.47	781.503
2910.79	750.664
2912.12	773.158
2913.44	772.985
2914.76	776.812
2916.08	764.64
2917.4	747.133
2918.72	756.961
2920.04	760.788
2921.36	781.282
2922.68	769.109
2923.99	755.603
2925.31	752.097
2926.63	758.591
2927.95	740.418
2929.26	770.245
2930.58	756.739
2931.89	773.233
2933.21	750.393
2934.53	738.887
2935.84	769.381
2937.15	757.875
2938.47	752.369
2939.78	766.196
2941.09	755.357
2942.41	737.184
2943.72	765.678
2945.03	746.838
2946.34	732.666
2947.65	739.826
2948.96	715.653
2950.27	743.481
2951.58	747.975
2952.89	733.135
2954.2	724.296
2955.51	723.456
2956.82	741.283
2958.13	736.444
2959.44	742.938
2960.74	722.765
2962.05	732.592
2963.36	735.086
2964.66	718.913
2965.97	736.741
2967.27	726.568
2968.58	732.395
2969.88	701.556
2971.19	720.05
2972.49	713.877
2973.79	725.037
2975.09	724.865
2976.4	704.692
2977.7	713.186
2979	687.68
2980.3	715.507
2981.6	722.001
2982.9	701.161
2984.2	707.655
2985.5	694.816
2986.8	703.976
2988.1	699.803
2989.4	698.297
2990.7	685.458
2991.99	678.618
2993.29	687.112
2994.59	715.606
2995.88	702.1
2997.18	705.261
2998.48	687.755
2999.77	714.915
3001.07	679.409
3002.36	708.57
3003.66	677.063
3004.95	681.557
3006.24	710.718
3007.54	703.878
3008.83	701.039
3010.12	689.533
3011.41	688.027
3012.7	679.854
3013.99	713.015
3015.28	690.842
3016.57	671.336
3017.86	676.496
3019.15	690.323
3020.44	673.484
3021.73	682.645
3023.02	691.805
3024.31	700.966
3025.6	676.793
3026.88	695.287
3028.17	689.781
3029.46	694.275
3030.74	664.768
3032.03	678.596
3033.31	655.756
3034.6	671.584
3035.88	679.411
3037.16	683.238
3038.45	669.732
3039.73	680.226
3041.01	677.386
3042.3	663.214
3043.58	679.707
3044.86	662.868
3046.14	651.362
3047.42	672.522
3048.7	663.683
3049.98	661.51
3051.26	684.671
3052.54	657.165
3053.82	678.325
3055.1	658.819
3056.38	643.313
3057.65	665.807
3058.93	667.634
3060.21	661.461
3061.48	655.289
3062.76	655.116
3064.04	644.276
3065.31	652.104
3066.59	646.597
3067.86	663.091
3069.13	654.919
3070.41	644.746
3071.68	660.573
3072.95	629.067
3074.23	663.561
3075.5	672.055
3076.77	639.215
3078.04	639.709
3079.31	651.536
3080.58	669.793
3081.86	646.831
3083.12	641.023
3084.39	637.452
3085.66	652.639
3086.93	629.331
3088.2	632.684
3089.47	633.237
3090.74	641.766
3092	649.666
3093.27	620.487
3094.54	632.019
3095.8	637.792
3097.07	627.886
3098.33	640.611
3099.6	624.872
3100.86	627.226
3102.13	622.461
3103.39	618.193
3104.65	622.109
3105.92	634.776
3107.18	622.036
3108.44	619.612
3109.7	631.002
3110.96	627.976
3112.22	620.727
3113.49	626.55
3114.75	629.91
3116.01	629.031
3117.27	610.413
3118.52	614.625
3119.78	624.768
3121.04	607.94
3122.3	628.084
3123.56	597.634
3124.81	618.953
3126.07	609.07
3127.33	604.796
3128.58	602.716
3129.84	614.126
3131.09	616.661
3132.35	603.281
3133.6	608.859
3134.86	600.134
3136.11	607.351
3137.36	599.135
3138.62	602.919
3139.87	605.402
3141.12	598.965
3142.37	605.295
3143.62	598.425
3144.87	606.956
3146.13	599.204
3147.38	594.252
3148.63	604.136
3149.88	589.69
3151.12	605.284
3152.37	598.68
3153.62	583.471
3154.87	594.33
3156.12	601.151
3157.36	597.182
3158.61	590.693
3159.86	593.315
3161.1	590.673
3162.35	598.346
3163.59	590.023
3164.84	590.563
3166.08	598.4
3167.33	599.35
3168.57	593.272
3169.81	589.643
3171.06	591.307
3172.3	583.354
3173.54	596.917
3174.78	588.816
3176.02	579.37
3177.27	587.469
3178.51	568.223
3179.75	584.432
3180.99	578.785
3182.23	565.359
3183.46	568.253
3184.7	581.221
3185.94	577.629
3187.18	583.771
3188.42	588.574
3189.65	576.069
3190.89	581.922
3192.13	592.517
3193.36	578.645
3194.6	576.825
3195.83	576.845
3197.07	575.421
3198.3	571.026
3199.54	571.583
3200.77	571.329
3202.01	575.915
3203.24	570.064
3204.47	569.692
3205.7	560.146
3206.93	569.348
3208.17	560.447
3209.4	555.048
3210.56	583.588
3211.83	569.566
3213.1	554.878
3214.37	566.857
3215.64	547.503
3216.91	568.148
3218.17	570.127
3219.44	577.439
3220.71	560.084
3221.98	568.729
3223.25	551.375
3224.51	556.02
3225.78	551.332
3227.05	539.311
3228.31	541.289
3229.58	547.268
3230.84	561.914
3232.11	557.892
3233.37	547.871
3234.64	553.183
3235.9	553.828
3237.16	553.807
3238.43	540.452
3239.69	546.431
3240.95	551.743
3242.21	551.055
3243.48	533.034
3244.74	549.013
3246	546.991
3247.26	526.303
3248.52	542.282
3249.78	544.927
3251.04	550.239
3252.3	540.885
3253.56	531.53
3254.82	548.842
3256.08	544.821
3257.33	535.466
3258.59	534.778
3259.85	546.757
3261.11	528.736
3262.36	544.048
3263.62	561.36
3264.88	544.672
3266.13	522.65
3267.39	555.296
3268.64	539.941
3269.9	546.586
3271.15	535.232
3272.41	536.544
3273.66	530.522
3274.91	531.835
3276.17	547.813
3277.42	521.125
3278.67	545.771
3279.92	527.083
3281.18	559.061
3282.43	529.707
3283.68	534.352
3284.93	524.997
3286.18	540.309
3287.43	550.288
3288.68	505.6
3289.93	539.579
3291.18	539.558
3292.43	509.536
3293.68	534.182
3294.92	524.16
3296.17	535.472
3297.42	534.784
3298.67	538.096
3299.91	510.742
3301.16	536.72
3302.4	510.699
3303.65	504.678
3304.9	533.99
3306.14	518.635
3307.39	519.281
3308.63	511.926
3309.87	517.238
3311.12	510.55
3312.36	529.862
3313.6	517.174
3314.85	514.486
3316.09	520.465
3317.33	527.11
3318.57	518.422
3319.82	538.401
3321.06	511.046
3322.3	515.025
3323.54	519.67
3324.78	522.982
3326.02	525.628
3327.26	520.94
3328.5	507.585
3329.73	513.564
3330.97	518.876
3332.21	518.188
3333.45	520.833
3334.69	528.812
3335.92	508.791
3337.16	491.436
3338.4	504.748
3339.63	506.727
3340.87	516.039
3342.1	532.684
3343.34	508.663
3344.57	486.641
3345.81	513.287
3347.04	513.265
3348.28	505.911
3349.51	502.556
3350.74	510.535
3351.98	515.18
3353.21	501.826
3354.44	509.138
3355.67	498.45
3356.9	492.428
3358.13	482.407
3359.37	500.386
3360.6	507.698
3361.83	499.01
3363.06	504.988
3364.29	508.301
3365.51	505.613
3366.74	482.925
3367.97	490.237
3369.2	469.549
3370.43	493.527
3371.66	500.173
3372.88	482.818
3374.11	512.797
3375.34	496.775
3376.56	498.087
3377.79	489.4
3379.01	508.712
3380.24	484.69
3381.46	492.669
3382.69	495.981
3383.91	493.293
3385.14	478.605
3386.36	504.584
3387.58	491.229
3388.81	487.874
3390.03	491.186
3391.25	487.165
3392.47	492.477
3393.69	485.789
3394.91	490.435
3396.14	491.08
3397.36	475.059
3398.58	485.037
3399.8	497.683
3401.01	470.328
3402.23	492.307
3403.45	472.285
3404.67	485.597
3405.89	474.909
3407.11	482.888
3408.33	480.867
3409.54	468.179
3410.76	475.491
3411.98	467.47
3413.19	483.448
3414.41	469.427
3415.62	481.406
3416.84	470.051
3418.05	478.696
3419.27	472.008
3420.48	464.654
3421.7	453.966
3422.91	464.611
3424.12	461.257
3425.34	462.569
3426.55	461.214
3427.76	466.526
3428.97	474.505
3430.19	462.483
3431.4	479.795
3432.61	465.107
3433.82	449.086
3435.03	474.398
3436.24	445.71
3437.45	455.689
3438.66	459.001
3439.87	457.646
3441.08	468.958
3442.28	459.604
3443.49	446.249
3444.7	440.894
3445.91	449.54
3447.11	450.852
3448.32	471.497
3449.53	464.142
3450.73	454.788
3451.94	448.767
3453.14	448.745
3454.35	459.391
3455.55	447.369
3456.76	465.348
3457.96	450.66
3459.17	450.639
3460.37	455.951
3461.57	443.263
3462.78	457.908
3463.98	449.887
3465.18	442.532
3466.38	455.844
3467.58	452.49
3468.78	431.135
3469.99	435.114
3471.19	453.092
3472.39	445.738
3473.59	447.716
3474.79	442.362
3475.98	451.674
3477.18	426.319
3478.38	438.298
3479.58	446.943
3480.78	449.589
3481.98	437.567
3483.17	438.213
3484.37	437.525
3485.57	444.17
3486.76	440.815
3487.96	445.461
3489.15	440.773
3490.35	448.751
3491.54	448.73
3492.74	459.375
3493.93	452.021
3495.13	452.666
3496.32	445.978
3497.51	421.29
3498.71	438.602
3499.9	431.914
3501.09	436.56
3502.28	438.538
3503.48	435.184
3504.67	435.162
3505.86	430.474
3507.05	430.453
3508.24	420.432
3509.43	433.744
3510.62	426.389
3511.81	418.368
3513	435.68
3514.19	420.992
3515.37	425.637
3516.56	421.616
3517.75	432.928
3518.94	432.907
3520.12	434.885
3521.31	417.531
3522.5	423.51
3523.68	410.155
3524.87	415.467
3526.05	418.112
3527.24	424.758
3528.43	415.403
3529.61	407.382
3530.79	417.36
3531.98	413.339
3533.16	433.984
3534.34	413.963
3535.53	421.942
3536.71	423.921
3537.89	413.899
3539.07	425.211
3540.25	413.857
3541.44	411.169
3542.62	429.147
3543.8	399.126
3544.98	413.105
3546.16	411.75
3547.34	419.729
3548.52	405.707
3549.7	399.02
3550.88	420.998
3552.05	402.31
3553.23	412.289
3554.41	402.934
3555.59	411.58
3556.76	426.225
3557.94	410.204
3559.12	410.849
3560.29	407.494
3561.47	406.14
3562.64	408.785
3563.82	399.431
3564.99	405.409
3566.17	404.721
3567.34	398.033
3568.52	411.345
3569.69	410.657
3570.86	392.636
3572.04	385.281
3573.21	407.927
3574.38	394.572
3575.55	402.551
3576.72	402.529
3577.9	389.841
3579.07	392.487
3580.24	399.132
3581.41	401.111
3582.58	426.423
3583.75	394.402
3584.92	395.047
3586.08	414.359
3587.25	404.338
3588.42	400.316
3589.59	390.962
3590.76	380.274
3591.92	406.919
3593.09	404.231
3594.26	390.21
3595.42	398.855
3596.59	406.167
3597.76	391.479
3598.92	389.458
3600.09	390.77
3601.25	391.415
3602.42	399.394
3603.58	414.039
3604.74	381.351
3605.91	411.997
3607.07	383.976
3608.23	393.288
3609.4	393.266
3610.56	407.245
3611.72	388.557
3612.88	393.202
3614.04	393.848
3615.21	396.493
3616.37	386.472
3617.53	404.45
3618.69	396.429
3619.85	390.408
3621	384.387
3622.16	391.032
3623.32	399.011
3624.48	400.989
3625.64	382.968
3626.8	386.28
3627.95	384.259
3629.11	375.571
3630.27	388.883
3631.42	390.861
3632.58	376.173
3633.74	381.486
3634.89	384.798
3636.05	380.11
3637.2	381.422
3638.36	381.4
3639.51	365.379
3640.66	392.024
3641.82	387.336
3642.97	385.982
3644.12	375.96
3645.28	378.606
3646.43	372.585
3647.58	393.23
3648.73	381.875
3649.88	364.521
3651.04	387.166
3652.19	379.811
3653.34	388.457
3654.49	383.102
3655.64	377.747
3656.79	379.059
3657.93	383.705
3659.08	361.017
3660.23	373.662
3661.38	368.974
3662.53	378.953
3663.68	356.265
3664.82	366.244
3665.97	377.556
3667.12	374.201
3668.26	384.846
3669.41	368.158
3670.55	390.804
3671.7	367.449
3672.84	360.761
3673.99	373.406
3675.13	373.385
3676.28	380.031
3677.42	369.343
3678.56	377.321
3679.71	358.633
3680.85	369.945
3681.99	374.591
3683.13	346.569
3684.28	365.881
3685.42	377.193
3686.56	372.505
3687.7	357.818
3688.84	368.463
3689.98	359.775
3691.12	353.754
3692.26	348.399
3693.4	366.378
3694.54	367.69
3695.68	362.335
3696.81	369.647
3697.95	354.292
3699.09	358.938
3700.23	362.25
3701.36	362.228
3702.5	345.541
3703.64	362.853
3704.77	360.165
3705.91	362.143
3707.04	347.455
3708.18	350.767
3709.31	360.079
3710.45	358.725
3711.58	343.37
3712.72	356.682
3713.85	359.327
3714.98	346.639
3716.12	344.618
3717.25	344.597
3718.38	344.576
3719.51	338.554
3720.64	334.533
3721.78	347.178
3722.91	341.157
3724.04	353.802
3725.17	345.114
3726.3	349.093
3727.43	349.072
3728.56	339.717
3729.69	337.029
3730.82	330.341
3731.94	346.987
3733.07	346.299
3734.2	342.944
3735.33	337.589
3736.45	338.235
3737.58	338.213
3738.71	350.859
3739.83	340.837
3740.96	330.816
3742.09	353.461
3743.21	330.107
3744.34	342.086
3745.46	331.398
3746.59	326.71
3747.71	328.688
3748.83	336
3749.96	343.312
3751.08	336.624
3752.2	329.936
3753.32	348.582
3754.45	335.894
3755.57	333.872
3756.69	341.185
3757.81	323.163
3758.93	331.142
3760.05	356.454
3761.17	342.433
3762.29	331.078
3763.41	333.723
3764.53	317.702
3765.65	335.014
3766.77	334.993
3767.89	326.305
3769.01	328.284
3770.12	336.929
3771.24	339.574
3772.36	320.886
3773.47	332.865
3774.59	334.177
3775.71	318.156
3776.82	329.468
3777.94	324.78
3779.05	321.425
3780.17	322.737
3781.28	334.049
3782.4	331.361
3783.51	336.007
3784.63	323.985
3785.74	329.964
3786.85	325.276
3787.96	321.255
3789.08	341.9
3790.19	316.545
3791.3	326.524
3792.41	313.169
3793.52	334.481
3794.63	319.127
3795.74	331.105
3796.86	321.084
3797.97	309.063
3799.07	322.375
3800.18	331.687
3801.29	327.666
3802.4	316.978
3803.51	318.956
3804.62	316.268
3805.73	330.247
3806.83	311.559
3807.94	329.538
3809.05	324.85
3810.15	326.162
3811.26	306.141
3812.37	306.119
3813.47	328.765
3814.58	325.41
3815.68	303.389
3816.79	311.367
3817.89	326.013
3818.99	319.325
3820.1	319.303
3821.2	311.949
3822.3	312.594
3823.41	313.24
3824.51	314.552
3825.61	306.53
3826.71	313.842
3827.81	307.154
3828.92	310.466
3830.02	315.112
3831.12	315.757
3832.22	311.736
3833.32	305.048
3834.42	293.693
3835.52	301.005
3836.61	311.651
3837.71	300.963
3838.81	290.941
3839.91	310.92
3841.01	312.232
3842.1	290.877
3843.2	305.523
3844.3	306.168
3845.4	301.48
3846.49	313.459
3847.59	293.437
3848.68	288.75
3849.78	299.395
3850.87	294.707
3851.97	290.019
3853.06	301.998
3854.16	303.976
3855.25	303.955
3856.34	307.267
3857.44	296.579
3858.53	298.558
3859.62	294.536
3860.71	291.848
3861.81	301.161
3862.9	284.473
3863.99	291.785
3865.08	290.43
3866.17	281.742
3867.26	293.721
3868.35	286.366
3869.44	309.011
3870.53	305.657
3871.62	282.302
3872.71	305.614
3873.79	284.259
3874.88	278.238
3875.97	294.217
3877.06	276.862
3878.15	298.841
3879.23	299.486
3880.32	295.465
3881.41	278.777
3882.49	297.422
3883.58	282.734
3884.66	288.046
3885.75	284.025
3886.83	292.004
3887.92	299.316
3889	293.295
3890.08	283.94
3891.17	283.919
3892.25	285.231
3893.33	291.209
3894.42	287.855
3895.5	275.833
3896.58	285.145
3897.66	277.124
3898.74	294.436
3899.82	290.415
3900.91	279.06
3901.99	278.372
3903.07	293.018
3904.15	278.33
3905.23	274.308
3906.3	291.62
3907.38	281.599
3908.46	286.911
3909.54	268.89
3910.62	284.868
3911.7	288.847
3912.77	290.159
3913.85	280.138
3914.93	276.783
3916	286.762
3917.08	274.741
3918.16	286.719
3919.23	275.365
3920.31	283.343
3921.38	272.655
3922.46	277.967
3923.53	278.613
3924.6	287.258
3925.68	266.57
3926.75	283.882
3927.82	260.528
3928.9	277.173
3929.97	252.485
3931.04	271.13
3932.11	273.109
3933.18	279.754
3934.25	273.733
3935.33	273.712
3936.4	268.357
3937.47	271.002
3938.54	270.314
3939.61	262.293
3940.68	263.605
3941.74	277.584
3942.81	268.896
3943.88	280.208
3944.95	260.853
3946.02	272.165
3947.08	274.811
3948.15	261.456
3949.22	273.435
3950.29	268.08
3951.35	276.059
3952.42	253.371
3953.48	255.35
3954.55	263.328
3955.61	267.307
3956.68	275.286
3957.74	265.931
3958.81	271.91
3959.87	268.555
3960.93	257.867
3962	269.179
3963.06	254.491
3964.12	259.803
3965.19	259.782
3966.25	271.094
3967.31	255.739
3968.37	246.385
3969.43	261.03
3970.49	259.675
3971.55	248.321
3972.61	270.299
3973.67	248.278
3974.73	262.257
3975.79	261.569
3976.85	249.548
3977.91	263.526
3978.97	256.838
3980.03	256.817
3981.08	263.462
3982.14	258.108
3983.2	248.086
3984.25	261.398
3985.31	237.377
3986.37	250.022
3987.42	261.334
3988.48	255.98
3989.53	252.625
3990.59	266.604
3991.64	257.916
3992.7	235.228
3993.75	257.873
3994.81	252.519
3995.86	244.497
3996.91	240.476
3997.97	259.121
3999.02	252.433
