#Acq. time (s)=	30
#Accumulations=	4
#Range (cm-¹)=	60...4000
#Windows=	3
#Auto scanning=	Off
#Autofocus=	Off
#AutoExposure=	Off
#Spike filter=	Multiple accum.
#Delay time (s)=	0
#Binning=	1
#Readout mode=	Signal
#DeNoise=	Off
#ICS correction=	Off
#Dark correction=	Off
#Inst. Process=	Off
#Detector Gain=	Best Dynamic Range
#Detector ADC=	45 kHz       
#Detector temperature (°C)=	-60.1
#Instrument=	XploRA Plus
#Detector=	Syncerity OE
#Objective=	x50_VIS_LWD
#Grating=	1200 (750nm)
#Filter=	50%
#Laser=	638nm_Edge
#Slit (µm)=	100 
#Hole (µm)=	300 
#Temperature=	0
#StageXY=	75x50mm Scan+
#StageZ=	Z motor
#X (µm)=	0
#Y (µm)=	0
#Z (µm)=	43
#Full time(mm:ss)=	6:14
#Project=	
#Sample=	
#Site=	
#Title=	OlivinePeridote_15_34_07_2026_03_30_4_30 s_638nm_Edge_1200 (750nm)_x50_VIS_LWD_100 µm_300 µm_50%
#Remark=	
#Date=	30.03.2026 15:34
#Acquired=	30.03.2026 15:34:42
#AxisType[0]=Intens
#AxisUnit[0]=Cnt
#AxisType[1]=Spectr
#AxisUnit[1]=1/cm
62.2295	3089
64.3928	2988.95
66.5569	2778.24
68.719	2845.52
70.882	2383.47
73.0428	2552.75
75.2031	2362.71
77.3628	2133.32
79.5219	2385.27
81.6818	2291.23
83.8397	2075.18
85.997	2039.13
88.1522	1957.74
90.3083	2007.03
92.4638	1802.31
94.6187	1803.6
96.773	1918.22
98.9252	1633.5
101.078	1853.45
103.231	1684.73
105.381	1698.69
107.533	1721.3
109.682	1596.59
111.831	1603.87
113.98	1460.49
116.128	1483.77
118.274	1501.06
120.421	1727.68
122.566	1964.96
124.712	2353.58
126.856	3138.2
129	3490.81
131.143	3611.43
133.286	3112.71
135.428	2334.67
137.57	1902.62
139.709	1773.23
141.85	1679.85
143.988	1649.8
146.127	1600.42
148.264	1643.04
150.402	1555.66
152.538	1534.94
154.674	1523.56
156.81	1542.18
158.944	1498.13
161.078	1463.41
163.211	1500.69
165.343	1370.65
167.475	1501.26
169.606	1566.55
171.737	1484.5
173.866	1519.12
175.995	1527.07
178.124	1571.02
180.253	1633.64
182.379	1682.25
184.506	1772.87
186.631	1936.82
188.756	2114.11
190.881	2262.72
193.004	2606.01
195.127	2813.96
197.251	3104.58
199.373	3553.86
201.494	3965.81
203.614	4366.43
205.734	4753.05
207.853	4863.66
209.971	4836.28
212.089	4588.23
214.206	4200.85
216.323	3825.47
218.438	3364.75
220.554	3002.04
222.668	2676.65
224.783	2379.27
226.895	2140.56
229.007	1999.17
231.12	1945.79
233.231	1783.74
235.341	1832.36
237.451	1575.64
239.56	1501.6
241.669	1478.88
243.777	1379.5
245.884	1372.11
247.991	1355.4
250.096	1366.68
252.202	1382.63
254.307	1378.59
256.41	1351.87
258.514	1437.15
260.616	1613.1
262.719	1819.72
264.82	1948.34
266.92	1955.62
269.021	1796.91
271.12	1490.19
273.219	1300.14
275.317	1212.76
277.414	1170.71
279.511	1148.66
281.607	1055.95
283.701	1029.23
285.797	1047.85
287.891	1041.8
289.984	1097.08
292.077	1001.7
294.17	988.986
296.261	1063.6
298.351	995.555
300.442	974.173
302.531	974.124
304.62	972.074
306.708	1020.69
308.795	964.643
310.882	987.927
312.968	1032.54
315.054	974.496
317.139	943.78
319.224	981.731
321.308	1005.68
323.39	944.3
325.473	961.584
327.553	928.202
329.635	937.486
331.715	941.437
333.794	955.388
335.874	918.005
337.952	895.956
340.03	916.574
342.107	911.858
344.183	959.142
346.259	926.427
348.334	953.711
350.409	968.995
352.483	1084.95
354.557	1198.23
356.628	1256.18
358.701	1243.47
360.771	1168.08
362.842	1083.37
364.912	1031.32
366.982	977.27
369.05	947.22
371.118	940.505
373.185	911.789
375.251	877.74
377.317	903.024
379.383	924.309
381.448	934.926
383.512	878.21
385.576	938.828
387.639	888.779
389.7	967.397
391.762	1020.68
393.822	1062.63
395.883	1035.92
397.942	1060.53
400.001	1011.82
402.06	991.102
404.117	979.053
406.174	958.338
408.23	964.288
410.286	912.239
412.341	885.524
414.396	911.475
416.45	966.092
418.502	950.043
420.554	959.994
422.607	947.945
424.657	903.896
426.708	917.847
428.758	947.798
430.808	983.082
432.856	981.7
434.904	996.984
436.951	1045.6
438.997	1070.89
441.043	1072.84
443.089	1192.79
445.133	1266.74
447.178	1493.36
449.222	1787.97
451.263	1997.26
453.306	2293.21
455.348	2799.83
457.388	3630.44
459.429	5507.73
461.468	8605.68
463.507	11978.3
465.545	13712.9
467.584	13500.9
469.621	11242.8
471.657	8050.1
473.693	5462.05
475.727	3908.67
477.761	3095.29
479.796	2537.91
481.829	2195.19
483.861	1923.81
485.893	1728.42
487.924	1609.04
489.955	1569.66
491.985	1400.94
494.014	1368.89
496.044	1299.51
498.072	1232.8
500.099	1230.75
502.126	1202.03
504.152	1198.65
506.178	1158.6
508.201	1075.22
510.226	1101.17
512.25	1087.79
514.272	1046.4
516.295	1059.69
518.316	1010.97
520.338	1016.26
522.358	1018.87
524.378	977.492
526.396	1016.11
528.416	994.728
530.434	957.345
532.451	938.63
534.467	941.914
536.483	915.865
538.499	957.816
540.514	926.433
542.527	928.384
544.541	905.002
546.553	922.953
548.566	947.57
550.577	882.188
552.588	878.139
554.599	880.756
556.609	876.707
558.618	839.992
560.626	817.276
562.634	857.894
564.64	840.511
566.646	842.462
568.653	857.746
570.657	844.364
572.662	838.315
574.667	832.933
576.67	828.884
578.672	799.501
580.675	863.452
582.676	823.403
584.677	822.687
586.677	831.972
588.676	818.589
590.675	833.874
592.674	820.491
594.671	845.109
596.668	834.393
598.665	847.677
600.66	802.962
602.656	836.246
604.65	834.197
606.643	792.814
608.637	791.432
610.63	788.716
612.622	787.334
614.613	791.285
616.604	801.236
618.594	816.52
620.584	779.804
622.571	819.755
624.56	790.373
626.548	785.657
628.534	807.608
630.52	791.559
632.507	806.177
634.491	806.128
636.476	794.745
638.459	784.696
640.444	755.981
642.426	786.598
644.407	773.882
646.388	764.5
648.369	791.784
650.35	769.069
652.328	812.353
654.308	798.304
656.286	796.255
658.264	792.872
660.24	795.49
662.216	772.774
664.193	774.059
666.168	764.01
668.143	763.96
670.117	747.245
672.089	745.862
674.061	760.48
676.034	771.098
678.006	756.382
679.975	752.333
681.946	780.284
683.915	795.568
685.884	796.852
687.853	801.47
689.82	790.087
691.787	821.372
693.753	849.323
695.719	839.274
697.684	879.225
699.649	867.176
701.612	825.793
703.576	800.411
705.539	783.028
707.5	794.313
709.461	774.93
711.423	782.881
713.383	778.832
715.342	753.45
717.301	781.401
719.259	764.018
721.217	773.969
723.174	749.254
725.131	731.205
727.087	755.155
729.041	757.106
730.996	767.057
732.95	759.008
734.904	737.626
736.856	755.577
738.808	744.194
740.761	741.479
742.711	763.43
744.662	754.714
746.611	752.665
748.559	773.949
750.508	726.567
752.456	724.518
754.403	736.469
756.35	740.42
758.295	737.704
760.241	751.655
762.186	744.273
764.13	753.557
766.073	731.508
768.017	753.459
769.959	759.41
771.9	756.694
773.841	747.978
775.782	755.262
777.722	773.88
779.66	760.498
781.6	777.115
783.537	779.066
785.474	781.017
787.412	787.635
789.348	807.586
791.283	839.537
793.218	907.488
795.152	940.772
797.086	960.056
799.02	988.007
800.951	983.291
802.883	981.909
804.814	1071.86
806.745	1119.14
808.675	1158.43
810.604	1111.71
812.534	1044.33
814.462	925.615
816.389	893.566
818.316	804.85
820.243	808.801
822.168	781.419
824.093	776.703
826.018	768.654
827.941	765.271
829.865	779.889
831.787	757.173
833.709	755.791
835.632	767.075
837.552	739.026
839.473	760.977
841.392	744.261
843.311	751.546
845.229	747.496
847.147	744.114
849.065	760.065
850.981	774.683
852.897	733.967
854.812	739.251
856.727	745.202
858.642	740.486
860.555	733.771
862.468	720.388
864.38	753.006
866.292	718.29
868.203	724.241
870.113	738.859
872.024	748.143
873.932	727.427
875.842	721.378
877.75	738.663
879.657	715.28
881.565	723.898
883.471	704.515
885.376	723.133
887.282	732.417
889.186	749.035
891.089	734.319
892.993	743.604
894.896	730.221
896.797	754.839
898.7	726.79
900.6	739.407
902.5	720.025
904.399	725.976
906.298	735.26
908.197	719.878
910.095	731.829
911.992	728.446
913.889	690.397
915.786	724.348
917.68	722.966
919.576	726.25
921.47	718.868
923.363	726.152
925.257	725.436
927.149	709.387
929.041	699.338
930.932	681.289
932.823	713.24
934.713	708.524
936.602	675.809
938.491	689.759
940.379	717.044
942.267	696.995
944.154	683.612
946.04	696.23
947.927	688.848
949.812	678.798
951.696	688.083
953.58	696.7
955.463	683.985
957.346	686.602
959.229	681.887
961.11	683.838
962.991	691.122
964.871	674.406
966.752	663.024
968.631	672.308
970.51	639.592
972.388	662.21
974.265	667.494
976.142	645.445
978.019	646.729
979.893	672.014
981.769	679.965
983.643	674.582
985.518	653.866
987.391	653.151
989.263	649.768
991.135	657.719
993.006	636.337
994.877	642.288
996.748	657.572
998.618	644.856
1000.49	660.141
1002.35	663.425
1004.22	643.376
1006.09	639.327
1007.96	684.611
1009.82	665.229
1011.69	656.513
1013.55	637.797
1015.42	663.082
1017.28	652.366
1019.15	639.65
1021.01	642.934
1022.87	636.885
1024.73	656.836
1026.59	660.787
1028.45	659.405
1030.31	641.356
1032.17	647.974
1034.03	659.258
1035.89	674.542
1037.75	686.493
1039.6	673.111
1041.46	659.062
1043.31	670.346
1045.17	660.297
1047.02	646.914
1048.88	666.199
1050.73	654.816
1052.58	654.767
1054.43	653.385
1056.28	660.002
1058.14	675.287
1059.99	678.571
1061.84	700.522
1063.68	725.14
1065.53	737.757
1067.38	765.708
1069.23	772.326
1071.08	772.943
1072.92	743.561
1074.77	724.179
1076.61	714.129
1078.46	746.08
1080.3	778.031
1082.14	819.316
1083.99	817.933
1085.83	804.551
1087.67	782.502
1089.51	723.119
1091.35	696.404
1093.19	685.021
1095.03	654.972
1096.87	666.257
1098.7	676.208
1100.54	667.492
1102.38	634.776
1104.21	655.394
1106.05	653.345
1107.88	669.962
1109.72	649.247
1111.55	631.864
1113.39	632.482
1115.22	646.433
1117.05	637.717
1118.88	631.001
1120.71	646.286
1122.54	634.903
1124.37	627.521
1126.2	621.472
1128.03	630.089
1129.86	660.707
1131.69	650.658
1133.51	649.942
1135.34	614.56
1137.16	641.177
1138.99	635.128
1140.81	651.746
1142.64	634.364
1144.46	644.981
1146.28	638.932
1148.1	644.216
1149.93	665.501
1151.75	646.118
1153.57	688.069
1155.39	702.687
1157.21	733.971
1159.03	740.589
1160.84	782.54
1162.66	789.157
1164.48	759.108
1166.29	735.059
1168.11	733.01
1169.93	673.628
1171.74	655.579
1173.55	645.53
1175.37	646.814
1177.18	630.098
1178.99	619.382
1180.8	623.333
1182.61	610.618
1184.42	643.902
1186.24	631.186
1188.04	633.804
1189.85	619.088
1191.66	602.372
1193.47	620.99
1195.28	600.274
1197.08	621.559
1198.89	624.176
1200.69	606.127
1202.5	637.411
1204.3	610.696
1206.11	626.647
1207.91	615.264
1209.71	622.549
1211.51	629.833
1213.31	637.784
1215.12	634.401
1216.92	639.019
1218.72	623.637
1220.51	640.921
1222.31	643.538
1224.11	650.823
1225.91	652.107
1227.7	664.058
1229.5	676.009
1231.3	685.293
1233.09	685.244
1234.88	680.528
1236.68	677.813
1238.47	658.43
1240.26	673.715
1242.06	671.666
1243.85	662.95
1245.64	667.567
1247.43	621.518
1249.22	658.803
1251.01	634.754
1252.8	648.705
1254.59	610.656
1256.37	649.94
1258.16	616.557
1259.95	630.508
1261.73	655.126
1263.52	625.744
1265.3	621.695
1267.08	617.646
1268.87	632.93
1270.65	635.547
1272.43	636.165
1274.22	638.116
1276	636.067
1277.78	607.351
1279.56	636.635
1281.34	621.92
1283.12	607.204
1284.89	611.155
1286.67	599.773
1288.45	615.724
1290.23	608.341
1292	586.959
1293.78	602.243
1295.55	615.527
1297.33	614.812
1299.1	590.763
1300.87	612.047
1302.65	586.664
1304.42	588.615
1306.19	587.9
1307.96	585.184
1309.73	603.802
1311.5	599.086
1313.27	607.037
1315.04	603.654
1316.81	580.272
1318.58	599.556
1320.34	598.174
1322.11	596.125
1323.87	594.742
1325.64	622.027
1327.4	605.311
1329.17	587.929
1330.93	607.213
1332.7	603.164
1334.46	587.115
1336.22	600.399
1337.98	619.017
1339.74	609.634
1341.5	600.252
1343.26	590.869
1345.02	606.154
1346.78	584.771
1348.54	589.389
1350.29	604.673
1352.05	599.291
1353.81	598.575
1355.56	615.859
1357.32	589.144
1359.07	583.095
1360.83	601.712
1362.58	586.33
1364.33	588.281
1366.08	606.232
1367.84	568.183
1369.59	604.134
1371.34	589.418
1373.09	601.369
1374.84	597.987
1376.59	607.937
1378.34	576.555
1380.08	585.173
1381.83	589.79
1383.58	589.741
1385.32	583.026
1387.07	585.643
1388.81	579.594
1390.56	595.545
1392.3	589.496
1394.05	592.78
1395.79	545.398
1397.53	609.349
1399.27	581.966
1401.01	581.917
1402.75	592.535
1404.49	585.819
1406.23	583.77
1407.97	565.055
1409.71	596.339
1411.45	573.623
1413.19	598.907
1414.92	570.192
1416.66	579.476
1418.39	592.76
1420.13	582.044
1421.86	577.329
1423.6	578.613
1425.33	578.564
1427.06	566.515
1428.8	571.799
1430.53	563.083
1432.26	577.701
1433.99	586.985
1435.72	569.603
1437.45	574.887
1439.18	566.171
1440.9	566.789
1442.63	586.073
1444.36	556.691
1446.09	581.975
1447.81	586.593
1449.54	583.21
1451.26	555.161
1452.99	573.112
1454.71	579.063
1456.43	576.348
1458.16	570.299
1459.88	586.916
1461.6	554.201
1463.32	574.151
1465.04	571.436
1466.76	551.387
1468.48	556.671
1470.2	574.622
1471.92	548.573
1473.64	551.19
1475.35	571.141
1477.07	563.759
1478.79	563.043
1480.5	572.328
1482.22	563.612
1483.93	546.896
1485.64	563.514
1487.36	586.798
1489.07	568.749
1490.78	554.033
1492.49	584.651
1494.21	559.268
1495.92	567.886
1497.63	563.837
1499.34	563.121
1501.04	549.739
1502.75	570.357
1504.46	556.307
1506.17	562.258
1507.87	570.876
1509.58	564.827
1511.29	565.445
1512.99	556.062
1514.7	550.68
1516.4	545.297
1518.1	551.248
1519.81	576.533
1521.51	577.15
1523.21	562.435
1524.91	555.052
1526.61	555.67
1528.31	536.954
1530.01	564.905
1531.71	554.189
1533.41	553.474
1535.11	554.091
1536.8	564.042
1538.5	553.326
1540.2	544.611
1541.89	548.562
1543.59	546.512
1545.28	555.797
1546.98	557.081
1548.67	568.365
1550.36	556.983
1552.06	567.601
1553.75	550.218
1555.44	568.169
1557.13	542.787
1558.82	557.404
1560.51	554.689
1562.2	556.64
1563.89	545.924
1565.58	547.875
1567.26	575.159
1568.95	554.443
1570.64	557.728
1572.32	553.679
1574.01	567.63
1575.69	538.247
1577.38	547.531
1579.06	541.482
1580.74	563.433
1582.43	546.718
1584.11	566.002
1585.79	554.62
1587.47	553.904
1589.15	534.521
1590.83	547.806
1592.51	547.757
1594.19	539.708
1595.87	542.325
1597.55	546.943
1599.22	552.227
1600.9	547.511
1602.58	555.462
1604.25	558.08
1605.93	535.364
1607.6	545.982
1609.27	551.933
1610.95	546.55
1612.62	545.835
1614.29	542.452
1615.97	545.07
1617.64	530.354
1619.31	547.638
1620.98	544.256
1622.65	538.207
1624.32	535.491
1625.98	546.109
1627.65	528.727
1629.32	536.677
1630.99	531.295
1632.65	531.246
1634.32	540.53
1635.98	545.815
1637.65	527.099
1639.31	531.05
1640.98	514.334
1642.64	533.618
1644.3	528.236
1645.97	534.854
1647.63	559.471
1649.29	553.422
1650.95	542.04
1652.61	543.991
1654.27	527.275
1655.93	527.893
1657.58	544.51
1659.24	525.128
1660.9	539.745
1662.56	533.696
1664.21	531.647
1665.87	536.265
1667.52	544.216
1669.18	540.167
1670.83	528.784
1672.49	531.402
1674.14	543.353
1675.79	523.304
1677.44	549.255
1679.09	538.539
1680.75	536.49
1682.39	524.441
1684.05	513.059
1685.69	532.343
1687.34	537.627
1688.99	523.578
1690.64	540.196
1692.29	530.147
1693.93	532.098
1695.58	528.049
1697.22	536.666
1698.87	530.617
1700.51	523.235
1702.16	517.186
1703.8	511.137
1705.44	514.421
1707.09	528.372
1708.73	525.656
1710.37	507.607
1712.01	526.891
1713.65	519.509
1715.29	516.793
1716.93	514.744
1718.57	516.695
1720.2	519.979
1721.84	531.93
1723.48	519.215
1725.12	506.499
1726.75	523.117
1728.39	516.401
1730.02	528.352
1731.66	493.636
1733.29	516.254
1734.92	502.871
1736.56	510.822
1738.19	500.107
1739.82	507.391
1741.45	506.008
1743.08	503.959
1744.71	507.91
1746.34	502.528
1747.97	518.479
1749.6	494.43
1751.23	497.047
1752.85	506.332
1754.48	498.949
1756.11	506.234
1757.73	507.518
1759.36	490.802
1760.98	500.086
1762.61	495.245
1764.23	504.75
1765.85	501.321
1767.48	503.542
1769.1	504.429
1770.72	506.776
1772.34	496.394
1773.96	494.828
1775.58	492.222
1777.2	493.317
1778.82	502.245
1780.44	499.052
1782.06	498.849
1783.67	495.054
1785.29	500.454
1786.91	503.884
1788.52	499.586
1790.14	499.318
1791.75	510.965
1793.37	489.474
1794.98	485.324
1796.59	510.306
1798.21	494.781
1799.82	505.231
1801.43	485.029
1803.04	487.617
1804.65	504.898
1806.26	495.607
1807.87	499.018
1809.48	493.553
1811.09	481.149
1812.7	484.109
1814.3	495.871
1815.91	488.981
1817.52	481.349
1819.12	488.318
1820.73	487.141
1822.34	486.476
1823.94	488.896
1825.54	485.285
1827.15	486.493
1828.75	488.181
1830.35	489.798
1831.95	475.253
1833.55	493.436
1835.15	471.203
1836.75	482.243
1838.35	481.184
1839.95	476.904
1841.55	472.613
1843.15	483.162
1844.75	481.275
1846.34	468.542
1847.94	475.671
1849.54	477.456
1851.13	484.656
1852.73	477.049
1854.32	476.63
1855.92	477.522
1857.51	475.3
1859.1	478.937
1860.69	468.293
1862.29	476.005
1863.88	476.237
1865.47	472.354
1867.06	480.515
1868.65	475.284
1870.24	477.662
1871.83	475.331
1873.41	484.791
1875	469.604
1876.59	472.627
1878.18	473.864
1879.76	469.785
1881.35	467.789
1882.93	466.593
1884.52	468.695
1886.1	476.96
1887.68	471.917
1889.27	467.423
1890.85	461.613
1892.43	481.426
1894.01	481.292
1895.59	471.057
1897.18	479.217
1898.75	452.446
1900.33	472.495
1901.91	479.318
1903.49	468.758
1905.07	486.97
1906.65	481.971
1908.22	468.191
1909.8	478.082
1911.38	483.385
1912.95	469.91
1914.53	467.153
1916.1	483.089
1917.67	473.566
1919.25	470.477
1920.82	473.902
1922.39	482.543
1923.96	487.952
1925.53	474.786
1927.1	466.171
1928.68	461.93
1929.45	457.683
1931.06	472.979
1932.67	476.274
1934.28	451.57
1935.88	481.532
1937.49	456.828
1939.1	454.124
1940.7	476.753
1942.31	461.382
1943.92	456.677
1945.52	475.973
1947.13	461.935
1948.73	459.231
1950.34	452.527
1951.94	459.823
1953.54	449.785
1955.15	462.414
1956.75	467.71
1958.35	462.339
1959.95	474.968
1961.55	468.263
1963.15	454.892
1964.75	470.188
1966.35	466.15
1967.95	463.446
1969.55	462.075
1971.15	469.371
1972.74	480.666
1974.34	468.629
1975.94	461.924
1977.53	473.22
1979.13	467.182
1980.73	445.811
1982.32	473.107
1983.91	470.403
1985.51	469.032
1987.1	464.994
1988.7	471.623
1990.29	463.586
1991.88	460.215
1993.47	467.51
1995.06	460.806
1996.65	478.768
1998.24	469.397
1999.83	458.693
2001.42	469.322
2003.01	470.618
2004.6	462.58
2006.19	472.542
2007.78	458.505
2009.36	467.8
2010.95	461.096
2012.54	467.725
2014.12	466.354
2015.71	455.65
2017.29	469.612
2018.88	467.575
2020.46	470.204
2022.04	480.833
2023.63	463.462
2025.21	460.757
2026.79	460.72
2028.37	475.349
2029.95	457.978
2031.53	471.273
2033.12	457.902
2034.7	456.531
2036.27	465.16
2037.85	466.456
2039.43	471.752
2041.01	473.047
2042.59	469.01
2044.16	452.972
2045.74	452.934
2047.32	459.564
2048.89	432.193
2050.47	447.488
2052.04	450.784
2053.62	454.08
2055.19	464.709
2056.77	454.004
2058.34	451.967
2059.91	465.262
2061.48	460.558
2063.06	453.854
2064.63	445.149
2066.2	461.112
2067.77	461.074
2069.34	435.703
2070.91	448.332
2072.48	446.294
2074.04	453.59
2075.61	444.886
2077.18	447.515
2078.75	448.81
2080.31	449.44
2081.88	458.735
2083.45	461.364
2085.01	444.66
2086.58	465.289
2088.14	455.918
2089.7	448.547
2091.27	447.843
2092.83	455.805
2094.39	469.101
2095.96	443.063
2097.52	449.692
2099.08	452.988
2100.64	452.283
2102.2	451.579
2103.76	450.208
2105.32	462.837
2106.88	456.133
2108.44	450.095
2110	463.391
2111.55	462.02
2113.11	453.982
2114.67	455.278
2116.23	451.907
2117.78	451.203
2119.34	462.498
2120.89	469.127
2122.45	459.783
2124	447.771
2125.55	464.427
2127.11	453.749
2128.66	451.071
2130.21	448.393
2131.76	454.382
2133.32	451.037
2134.87	445.026
2136.42	467.015
2137.97	454.337
2139.52	470.326
2141.07	454.315
2142.62	452.97
2144.16	448.959
2145.71	452.948
2147.26	452.27
2148.81	449.592
2150.35	446.914
2151.9	447.569
2153.44	454.225
2154.99	452.88
2156.53	448.869
2158.08	442.191
2159.62	440.18
2161.17	440.835
2162.71	456.157
2164.25	457.48
2165.79	452.135
2167.34	460.79
2168.88	433.446
2170.42	440.101
2171.96	447.423
2173.5	444.746
2175.04	442.734
2176.58	462.056
2178.11	436.712
2179.65	451.367
2181.19	444.689
2182.73	444.012
2184.26	441.334
2185.8	440.656
2187.34	448.645
2188.87	433.967
2190.41	435.955
2191.94	429.944
2193.48	449.266
2195.01	447.255
2196.54	466.577
2198.07	460.566
2199.61	445.221
2201.14	449.21
2202.67	456.532
2204.2	463.188
2205.73	455.176
2207.26	433.165
2208.79	443.821
2210.32	425.809
2211.85	452.465
2213.38	443.787
2214.91	435.776
2216.43	440.431
2217.96	443.753
2219.49	455.742
2221.01	457.731
2222.54	445.053
2224.06	436.375
2225.59	445.031
2227.11	449.686
2228.64	439.008
2230.16	428.33
2231.68	450.986
2233.21	430.974
2234.73	432.963
2236.25	462.285
2237.77	452.274
2239.29	453.596
2240.81	436.252
2242.33	462.24
2243.85	459.562
2245.37	440.218
2246.89	443.54
2248.41	464.862
2249.93	452.851
2251.44	455.506
2252.96	448.828
2254.48	434.817
2255.99	449.473
2257.51	447.461
2259.02	455.45
2260.54	448.772
2262.05	437.428
2263.57	453.417
2265.08	436.739
2266.59	450.061
2268.1	433.383
2269.62	444.038
2271.13	437.36
2272.64	464.682
2274.15	450.005
2275.66	442.66
2277.17	439.315
2278.68	429.971
2280.19	459.293
2281.7	455.949
2283.2	451.271
2284.71	437.926
2286.22	443.248
2287.73	444.57
2289.23	453.892
2290.74	430.548
2292.24	451.203
2293.75	459.192
2295.25	446.514
2296.76	457.17
2298.26	452.492
2299.76	441.814
2301.27	442.469
2302.77	445.791
2304.27	452.447
2305.77	431.769
2307.27	431.758
2308.77	452.413
2310.28	438.402
2311.77	458.391
2313.27	445.713
2314.77	432.368
2316.27	438.357
2317.77	440.346
2319.27	443.001
2320.76	439.657
2322.26	435.645
2323.76	435.634
2325.25	448.29
2326.75	440.278
2328.24	442.934
2329.74	456.256
2331.23	445.578
2332.73	444.9
2334.22	442.889
2335.71	450.878
2337.2	435.533
2338.7	438.189
2340.19	448.177
2341.68	441.499
2343.17	432.822
2344.66	436.144
2346.15	450.132
2347.64	434.788
2349.13	421.443
2350.62	443.432
2352.1	435.421
2353.59	450.076
2355.08	441.398
2356.56	439.387
2358.05	442.709
2359.54	428.698
2361.02	429.353
2362.51	436.009
2363.99	441.331
2365.48	436.653
2366.96	409.975
2368.44	427.297
2369.93	445.286
2371.41	435.942
2372.89	447.93
2374.37	432.586
2375.85	421.908
2377.33	442.563
2378.81	437.219
2380.29	425.874
2381.77	431.196
2383.25	440.518
2384.73	447.174
2386.21	421.163
2387.69	436.485
2389.16	436.473
2390.64	445.129
2392.12	442.451
2393.59	433.106
2395.07	453.762
2396.54	437.084
2398.02	457.073
2399.49	419.062
2400.96	438.384
2402.44	432.372
2403.91	437.695
2405.38	438.35
2406.85	435.005
2408.33	418.328
2409.8	434.316
2411.27	420.305
2412.74	434.961
2414.21	433.616
2415.68	435.605
2417.15	434.927
2418.62	434.249
2420.08	437.571
2421.55	432.227
2423.02	426.882
2424.49	439.537
2425.95	448.193
2427.42	422.182
2428.88	442.17
2430.35	437.492
2431.81	440.148
2433.28	424.803
2434.74	441.459
2436.21	412.781
2437.67	439.436
2439.13	433.425
2440.59	440.747
2442.05	425.403
2443.52	423.391
2444.98	424.714
2446.44	434.036
2447.9	423.358
2449.36	442.013
2450.81	428.002
2452.27	431.324
2453.73	434.646
2455.19	440.635
2456.65	424.624
2458.1	439.279
2459.56	428.601
2461.02	433.923
2462.47	421.245
2463.93	427.234
2465.38	431.223
2466.84	418.545
2468.29	407.867
2469.74	433.189
2471.2	431.178
2472.65	429.834
2474.1	448.489
2475.55	426.478
2477.01	427.133
2478.46	424.455
2479.91	431.777
2481.36	431.766
2482.81	435.088
2484.26	435.077
2485.71	431.733
2487.15	442.388
2488.6	417.043
2490.05	433.699
2491.5	437.021
2492.94	451.676
2494.39	410.332
2495.84	441.654
2497.28	431.643
2498.73	430.965
2500.17	416.287
2501.61	416.276
2503.06	433.598
2504.5	435.587
2505.95	415.575
2507.39	438.231
2508.83	434.886
2510.27	426.875
2511.71	424.864
2513.15	428.853
2514.59	435.508
2516.03	421.497
2517.47	436.152
2518.91	446.141
2520.35	436.13
2521.79	436.119
2523.23	431.441
2524.66	418.096
2526.1	425.418
2527.54	446.074
2528.97	440.729
2530.41	425.385
2531.84	436.707
2533.28	429.362
2534.71	436.017
2536.15	437.34
2537.58	426.662
2539.01	441.317
2540.45	427.973
2541.88	431.961
2543.31	437.95
2544.74	423.272
2546.17	432.594
2547.6	429.916
2549.04	421.239
2550.47	427.894
2551.89	423.883
2553.32	430.538
2554.75	431.86
2556.18	418.516
2557.61	436.505
2559.04	430.493
2560.46	438.482
2561.89	447.804
2563.31	436.46
2564.74	439.782
2566.17	427.104
2567.59	441.759
2569.01	437.081
2570.44	447.737
2571.86	437.059
2573.28	431.714
2574.71	422.37
2576.13	437.692
2577.55	437.681
2578.97	431.003
2580.39	431.658
2581.81	426.98
2583.23	425.636
2584.65	424.958
2586.07	432.947
2587.49	435.602
2588.91	414.258
2590.33	442.246
2591.74	413.568
2593.16	429.557
2594.58	420.879
2596	416.868
2597.41	432.857
2598.83	420.846
2600.24	434.168
2601.66	426.823
2603.07	420.145
2604.48	418.801
2605.9	422.789
2607.31	440.112
2608.72	418.1
2610.14	428.756
2611.55	426.745
2612.96	445.4
2614.37	446.056
2615.78	432.711
2617.19	439.366
2618.6	421.355
2620.01	429.344
2621.42	433.333
2622.83	433.321
2624.23	423.31
2625.64	429.299
2627.05	424.621
2628.46	445.277
2629.86	423.265
2631.27	437.921
2632.67	438.576
2634.08	435.898
2635.48	419.887
2636.89	441.876
2638.29	411.198
2639.69	424.52
2641.1	436.509
2642.5	426.498
2643.9	431.153
2645.3	428.475
2646.7	432.464
2648.11	427.119
2649.51	430.441
2650.91	433.764
2652.31	423.086
2653.71	413.074
2655.1	420.397
2656.5	418.385
2657.9	423.707
2659.3	433.696
2660.69	421.018
2662.09	430.34
2663.49	430.329
2664.88	439.651
2666.28	425.64
2667.67	424.962
2669.07	426.284
2670.46	437.606
2671.86	434.929
2673.25	406.251
2674.64	420.239
2676.04	420.228
2677.43	428.884
2678.82	430.206
2680.21	433.528
2681.6	430.85
2682.99	427.505
2684.38	409.494
2685.77	427.483
2687.16	420.138
2688.55	432.127
2689.94	429.449
2691.33	423.438
2692.71	414.76
2694.1	429.416
2695.49	428.738
2696.88	426.06
2698.26	422.715
2699.65	435.371
2701.03	416.693
2702.42	422.015
2703.8	411.337
2705.18	421.326
2706.57	434.648
2707.95	420.637
2709.33	415.292
2710.72	417.948
2712.1	418.603
2713.48	415.925
2714.86	421.247
2716.24	420.569
2717.62	418.558
2719	425.88
2720.38	423.202
2721.76	416.524
2723.14	426.513
2724.52	423.169
2725.89	415.824
2727.27	419.813
2728.65	423.802
2730.02	417.79
2731.4	409.779
2732.78	421.768
2734.15	415.757
2735.53	423.079
2736.9	420.401
2738.27	417.056
2739.65	441.712
2741.02	414.367
2742.39	417.689
2743.77	426.345
2745.14	413.667
2746.51	426.322
2747.88	406.978
2749.25	435.633
2750.62	420.289
2751.99	436.277
2753.36	427.599
2754.73	428.255
2756.1	419.577
2757.47	420.232
2758.84	430.888
2760.2	438.21
2761.57	423.532
2762.94	426.188
2764.3	414.843
2765.67	428.165
2767.03	430.821
2768.4	423.476
2769.76	414.798
2771.13	431.454
2772.49	428.776
2773.86	416.098
2775.22	423.42
2776.58	433.409
2777.94	412.731
2779.3	420.719
2780.67	408.708
2782.03	419.364
2783.39	426.019
2784.75	430.008
2786.11	430.663
2787.47	424.652
2788.83	423.974
2790.18	423.963
2791.54	427.285
2792.9	415.274
2794.26	395.929
2795.61	431.918
2796.97	414.574
2798.33	417.896
2799.68	415.884
2801.04	429.207
2802.39	424.529
2803.75	419.851
2805.1	425.173
2806.45	429.828
2807.81	421.15
2809.16	417.139
2810.51	415.795
2811.86	395.117
2813.22	423.772
2814.57	413.094
2815.92	423.75
2817.27	432.405
2818.62	427.061
2819.97	407.049
2821.32	401.038
2822.67	417.027
2824.01	419.682
2825.36	415.004
2826.71	424.993
2828.06	416.982
2829.4	423.637
2830.75	420.293
2832.1	414.282
2833.44	418.27
2834.79	430.926
2836.13	403.581
2837.48	412.903
2838.82	414.226
2840.16	411.548
2841.51	403.536
2842.85	416.192
2844.19	417.514
2845.53	401.503
2846.87	416.158
2848.22	402.147
2849.56	428.802
2850.9	431.458
2852.24	422.78
2853.58	430.102
2854.92	416.091
2856.25	422.746
2857.59	421.402
2858.93	406.057
2860.27	428.713
2861.6	400.701
2862.94	425.357
2864.28	428.012
2865.61	426.001
2866.95	423.99
2868.28	415.312
2869.62	408.634
2870.95	435.289
2872.29	425.278
2873.62	419.934
2874.95	411.922
2876.29	397.911
2877.62	400.567
2878.95	405.889
2880.28	419.211
2881.61	424.533
2882.94	411.855
2884.27	411.177
2885.6	419.166
2886.93	399.155
2888.26	410.477
2889.59	420.466
2890.92	397.121
2892.25	401.11
2893.57	416.432
2894.9	424.421
2896.23	411.743
2897.55	410.398
2898.88	413.054
2900.2	416.376
2901.53	400.365
2902.85	393.687
2904.18	419.675
2905.5	407.664
2906.83	403.653
2908.15	427.642
2909.47	410.297
2910.79	416.953
2912.12	416.941
2913.44	395.597
2914.76	418.252
2916.08	432.241
2917.4	416.23
2918.72	416.219
2920.04	422.874
2921.36	395.53
2922.68	410.185
2923.99	412.174
2925.31	417.496
2926.63	406.151
2927.95	424.14
2929.26	421.462
2930.58	403.451
2931.89	409.44
2933.21	412.762
2934.53	414.751
2935.84	402.073
2937.15	415.395
2938.47	406.05
2939.78	411.372
2941.09	415.361
2942.41	416.683
2943.72	404.005
2945.03	406.661
2946.34	419.983
2947.65	413.972
2948.96	411.294
2950.27	393.949
2951.58	389.938
2952.89	406.593
2954.2	429.915
2955.51	407.904
2956.82	400.56
2958.13	393.882
2959.44	413.871
2960.74	427.859
2962.05	403.181
2963.36	397.17
2964.66	412.492
2965.97	409.814
2967.27	419.137
2968.58	413.125
2969.88	408.447
2971.19	407.103
2972.49	399.758
2973.79	416.414
2975.09	390.403
2976.4	409.725
2977.7	395.047
2979	408.369
2980.3	410.358
2981.6	398.346
2982.9	397.668
2984.2	407.657
2985.5	392.979
2986.8	396.968
2988.1	402.29
2989.4	410.946
2990.7	407.601
2991.99	408.923
2993.29	403.579
2994.59	401.568
2995.88	392.223
2997.18	418.212
2998.48	400.2
2999.77	417.523
3001.07	401.511
3002.36	408.167
3003.66	411.489
3004.95	405.478
3006.24	403.466
3007.54	406.789
3008.83	405.444
3010.12	398.766
3011.41	393.422
3012.7	408.744
3013.99	394.732
3015.28	393.388
3016.57	398.043
3017.86	401.365
3019.15	394.021
3020.44	396.01
3021.73	413.332
3023.02	407.987
3024.31	397.309
3025.6	397.298
3026.88	416.62
3028.17	400.609
3029.46	395.931
3030.74	393.253
3032.03	414.575
3033.31	389.897
3034.6	396.553
3035.88	409.875
3037.16	411.864
3038.45	393.186
3039.73	387.175
3041.01	413.83
3042.3	403.819
3043.58	391.141
3044.86	402.463
3046.14	403.785
3047.42	415.107
3048.7	387.763
3049.98	385.751
3051.26	424.407
3052.54	394.396
3053.82	399.051
3055.1	411.706
3056.38	407.695
3057.65	403.017
3058.93	401.673
3060.21	394.328
3061.48	408.317
3062.76	393.639
3064.04	390.961
3065.31	405.617
3066.59	389.605
3067.86	396.261
3069.13	387.583
3070.41	390.238
3071.68	388.894
3072.95	381.549
3074.23	398.205
3075.5	394.194
3076.77	388.849
3078.04	388.838
3079.31	388.827
3080.58	396.105
3081.86	407.351
3083.12	394.571
3084.39	387.362
3085.66	388.684
3086.93	398.782
3088.2	388.903
3089.47	400.135
3090.74	399.16
3092	386.369
3093.27	396.641
3094.54	395.133
3095.8	389.683
3097.07	392.113
3098.33	408.106
3099.6	390.65
3100.86	400.739
3102.13	398.62
3103.39	387.74
3104.65	389.884
3105.92	389.974
3107.18	386.285
3108.44	393.087
3109.7	396.128
3110.96	393.617
3112.22	390.709
3113.49	382.284
3114.75	402.466
3116.01	387.561
3117.27	383.249
3118.52	392.699
3119.78	397.852
3121.04	389.777
3122.3	393.742
3123.56	382.966
3124.81	397.179
3126.07	382.616
3127.33	383.767
3128.58	392.17
3129.84	394.488
3131.09	392.986
3132.35	381.833
3133.6	391.982
3134.86	388.772
3136.11	393.21
3137.36	391.237
3138.62	397.108
3139.87	390.221
3141.12	388.108
3142.37	398.227
3143.62	389.368
3144.87	373.659
3146.13	390.554
3147.38	390.044
3148.63	393.487
3149.88	384.106
3151.12	389.611
3152.37	396.201
3153.62	390.553
3154.87	391.948
3156.12	386.436
3157.36	387.227
3158.61	391.003
3159.86	384.904
3161.1	390.057
3162.35	395.417
3163.59	392.869
3164.84	392.139
3166.08	401.341
3167.33	390.734
3168.57	388.223
3169.81	386.207
3171.06	381.05
3172.3	387.209
3173.54	381.763
3174.78	391.001
3176.02	385.356
3177.27	391.237
3178.51	382.04
3179.75	387.813
3180.99	386.283
3182.23	378.201
3183.46	389.349
3184.7	393.697
3185.94	380.621
3187.18	387.091
3188.42	381.61
3189.65	374.057
3190.89	380.927
3192.13	388.862
3193.36	381.454
3194.6	380.928
3195.83	389.634
3197.07	391.109
3198.3	388.804
3199.54	389.795
3200.77	382.367
3202.01	373.53
3203.24	376.688
3204.47	391.067
3205.7	402.215
3206.93	374.425
3208.17	373.282
3209.4	395.332
3210.56	392.944
3211.83	368.943
3213.1	366.275
3214.37	395.608
3215.64	359.606
3216.91	366.272
3218.17	377.604
3219.44	374.936
3220.71	380.935
3221.98	384.267
3223.25	378.266
3224.51	370.265
3225.78	377.597
3227.05	377.596
3228.31	378.928
3229.58	360.26
3230.84	378.259
3232.11	376.258
3233.37	376.924
3234.64	374.256
3235.9	374.255
3237.16	384.92
3238.43	366.252
3239.69	381.584
3240.95	375.583
3242.21	362.915
3243.48	375.581
3244.74	382.246
3246	376.245
3247.26	363.578
3248.52	370.91
3249.78	374.242
3251.04	377.574
3252.3	381.573
3253.56	376.238
3254.82	400.237
3256.08	376.236
3257.33	374.902
3258.59	386.9
3259.85	372.899
3261.11	366.898
3262.36	367.564
3263.62	374.896
3264.88	368.895
3266.13	368.893
3267.39	380.892
3268.64	359.558
3269.9	370.89
3271.15	374.889
3272.41	383.554
3273.66	365.553
3274.91	368.219
3276.17	386.884
3277.42	382.883
3278.67	366.215
3279.92	373.547
3281.18	376.88
3282.43	372.878
3283.68	362.211
3284.93	368.876
3286.18	369.542
3287.43	381.54
3288.68	358.873
3289.93	380.871
3291.18	384.204
3292.43	362.869
3293.68	387.535
3294.92	372.2
3296.17	369.532
3297.42	374.198
3298.67	373.53
3299.91	362.862
3301.16	371.528
3302.4	374.193
3303.65	368.859
3304.9	364.191
3306.14	376.856
3307.39	376.189
3308.63	374.187
3309.87	361.52
3311.12	363.518
3312.36	365.517
3313.6	374.849
3314.85	374.182
3316.09	370.181
3317.33	372.846
3318.57	364.178
3319.82	376.177
3321.06	374.843
3322.3	362.841
3323.54	353.507
3324.78	357.506
3326.02	351.505
3327.26	363.503
3328.5	370.836
3329.73	371.501
3330.97	376.167
3332.21	360.832
3333.45	364.831
3334.69	374.163
3335.92	356.829
3337.16	356.828
3338.4	370.826
3339.63	368.825
3340.87	370.157
3342.1	360.156
3343.34	361.488
3344.57	362.154
3345.81	354.819
3347.04	349.485
3348.28	368.15
3349.51	361.483
3350.74	360.148
3351.98	359.48
3353.21	366.812
3354.44	360.145
3355.67	362.143
3356.9	354.809
3358.13	368.141
3359.37	363.473
3360.6	360.139
3361.83	377.471
3363.06	359.47
3364.29	366.135
3365.51	358.801
3366.74	359.466
3367.97	354.799
3369.2	360.797
3370.43	363.463
3371.66	362.128
3372.88	365.461
3374.11	346.126
3375.34	355.458
3376.56	379.457
3377.79	363.456
3379.01	348.788
3380.24	366.787
3381.46	363.452
3382.69	352.118
3383.91	354.117
3385.14	341.449
3386.36	344.115
3387.58	336.113
3388.81	356.112
3390.03	348.111
3391.25	346.777
3392.47	350.109
3393.69	357.441
3394.91	365.44
3396.14	353.439
3397.36	365.437
3398.58	349.436
3399.8	368.102
3401.01	331.434
3402.23	339.433
3403.45	339.432
3404.67	347.43
3405.89	344.763
3407.11	358.762
3408.33	350.76
3409.54	339.426
3410.76	349.425
3411.98	352.09
3413.19	347.422
3414.41	345.421
3415.62	336.087
3416.84	349.419
3418.05	341.418
3419.27	346.083
3420.48	341.415
3421.7	346.081
3422.91	332.746
3424.12	350.745
3425.34	346.744
3426.55	344.076
3427.76	336.075
3428.97	350.074
3430.19	344.073
3431.4	346.738
3432.61	354.071
3433.82	332.736
3435.03	342.068
3436.24	340.067
3437.45	338.733
3438.66	358.731
3439.87	325.397
3441.08	342.062
3442.28	340.061
3443.49	343.393
3444.7	341.392
3445.91	341.391
3447.11	328.723
3448.32	330.722
3449.53	342.054
3450.73	339.387
3451.94	346.719
3453.14	351.384
3454.35	339.383
3455.55	335.382
3456.76	336.047
3457.96	340.713
3459.17	334.045
3460.37	344.044
3461.57	340.043
3462.78	336.708
3463.98	330.04
3465.18	340.039
3466.38	340.038
3467.58	352.704
3468.78	345.369
3469.99	350.701
3471.19	350.033
3472.39	343.366
3473.59	342.698
3474.79	342.03
3475.98	338.029
3477.18	348.028
3478.38	346.027
3479.58	349.359
3480.78	338.024
3481.98	340.023
3483.17	332.689
3484.37	330.687
3485.57	326.686
3486.76	330.685
3487.96	341.351
3489.15	314.016
3490.35	333.348
3491.54	344.68
3492.74	353.346
3493.93	342.011
3495.13	339.344
3496.32	335.342
3497.51	342.675
3498.71	333.34
3499.9	330.006
3501.09	320.671
3502.28	337.337
3503.48	329.336
3504.67	334.001
3505.86	324.667
3507.05	335.999
3508.24	333.331
3509.43	344.663
3510.62	321.329
3511.81	335.994
3513	325.326
3514.19	333.325
3515.37	337.324
3516.56	333.323
3517.75	330.655
3518.94	323.987
3520.12	336.653
3521.31	325.985
3522.5	318.65
3523.68	321.983
3524.87	335.981
3526.05	331.98
3527.24	313.979
3528.43	334.645
3529.61	331.31
3530.79	344.642
3531.98	322.641
3533.16	320.64
3534.34	325.972
3535.53	329.971
3536.71	330.636
3537.89	319.969
3539.07	320.634
3540.25	323.3
3541.44	333.299
3542.62	322.631
3543.8	315.963
3544.98	313.295
3546.16	338.627
3547.34	305.959
3548.52	325.958
3549.7	325.29
3550.88	330.623
3552.05	305.288
3553.23	316.62
3554.41	328.619
3555.59	317.285
3556.76	325.95
3557.94	322.616
3559.12	330.614
3560.29	315.947
3561.47	328.612
3562.64	315.278
3563.82	325.943
3564.99	321.275
3566.17	307.274
3567.34	313.273
3568.52	315.939
3569.69	319.271
3570.86	323.936
3572.04	310.602
3573.21	327.934
3574.38	316.599
3575.55	331.932
3576.72	327.264
3577.9	322.596
3579.07	317.928
3580.24	323.26
3581.41	318.592
3582.58	347.925
3583.75	321.257
3584.92	313.922
3586.08	319.921
3587.25	311.92
3588.42	334.586
3589.59	317.918
3590.76	315.25
3591.92	328.582
3593.09	309.248
3594.26	323.246
3595.42	325.912
3596.59	317.244
3597.76	307.91
3598.92	312.575
3600.09	305.241
3601.25	319.906
3602.42	319.238
3603.58	312.57
3604.74	318.569
3605.91	310.568
3607.07	325.234
3608.23	303.899
3609.4	314.565
3610.56	307.23
3611.72	315.896
3612.88	321.895
3614.04	316.56
3615.21	313.226
3616.37	315.891
3617.53	313.223
3618.69	309.889
3619.85	313.221
3621	328.553
3622.16	309.219
3623.32	308.551
3624.48	307.216
3625.64	297.215
3626.8	303.881
3627.95	315.213
3629.11	308.545
3630.27	325.211
3631.42	310.543
3632.58	316.542
3633.74	307.207
3634.89	320.539
3636.05	308.538
3637.2	309.204
3638.36	311.202
3639.51	308.535
3640.66	322.533
3641.82	308.532
3642.97	311.864
3644.12	312.53
3645.28	319.195
3646.43	309.861
3647.58	318.527
3648.73	303.859
3649.88	299.858
3651.04	307.856
3652.19	314.522
3653.34	298.521
3654.49	309.853
3655.64	311.852
3656.79	312.517
3657.93	311.183
3659.08	301.182
3660.23	296.514
3661.38	310.513
3662.53	315.845
3663.68	314.51
3664.82	309.176
3665.97	299.175
3667.12	301.84
3668.26	312.506
3669.41	311.838
3670.55	322.503
3671.7	312.502
3672.84	312.501
3673.99	303.833
3675.13	316.499
3676.28	300.498
3677.42	299.163
3678.56	311.829
3679.71	310.494
3680.85	301.826
3681.99	303.158
3683.13	299.824
3684.28	307.823
3685.42	300.488
3686.56	303.154
3687.7	291.153
3688.84	285.151
3689.98	307.15
3691.12	303.149
3692.26	297.815
3693.4	295.814
3694.54	287.812
3695.68	308.478
3696.81	311.81
3697.95	296.476
3699.09	292.474
3700.23	286.473
3701.36	303.139
3702.5	301.138
3703.64	299.803
3704.77	291.802
3705.91	295.801
3707.04	297.133
3708.18	301.798
3709.31	293.131
3710.45	291.796
3711.58	288.462
3712.72	297.794
3713.85	309.126
3714.98	302.458
3716.12	296.457
3717.25	297.123
3718.38	289.788
3719.51	318.454
3720.64	289.119
3721.78	297.118
3722.91	293.117
3724.04	289.116
3725.17	285.781
3726.3	287.78
3727.43	291.779
3728.56	287.111
3729.69	289.776
3730.82	284.442
3731.94	300.441
3733.07	291.106
3734.2	296.439
3735.33	284.437
3736.45	291.77
3737.58	293.102
3738.71	288.434
3739.83	288.433
3740.96	285.098
3742.09	276.43
3743.21	291.096
3744.34	288.428
3745.46	285.094
3746.59	285.092
3747.71	279.091
3748.83	285.757
3749.96	279.756
3751.08	297.754
3752.2	287.753
3753.32	294.419
3754.45	286.418
3755.57	279.75
3756.69	291.749
3757.81	287.081
3758.93	284.413
3760.05	287.079
3761.17	269.744
3762.29	290.41
3763.41	293.742
3764.53	290.407
3765.65	278.406
3766.77	285.738
3767.89	286.404
3769.01	283.069
3770.12	277.735
3771.24	289.734
3772.36	282.399
3773.47	267.731
3774.59	281.064
3775.71	284.396
3776.82	281.728
3777.94	273.727
3779.05	287.059
3780.17	295.058
3781.28	290.39
3782.4	277.722
3783.51	283.721
3784.63	297.053
3785.74	285.052
3786.85	283.717
3787.96	280.383
3789.08	287.715
3790.19	277.047
3791.3	281.713
3792.41	273.045
3793.52	295.711
3794.63	283.043
3795.74	266.375
3796.86	270.374
3797.97	272.373
3799.07	275.705
3800.18	274.37
3801.29	283.702
3802.4	277.701
3803.51	285.7
3804.62	267.699
3805.73	273.698
3806.83	276.363
3807.94	291.029
3809.05	275.694
3810.15	277.693
3811.26	280.359
3812.37	292.357
3813.47	276.356
3814.58	276.355
3815.68	261.687
3816.79	274.353
3817.89	281.018
3818.99	273.017
3820.1	278.349
3821.2	279.682
3822.3	267.014
3823.41	277.013
3824.51	285.678
3825.61	279.677
3826.71	280.342
3827.81	275.008
3828.92	287.007
3830.02	279.006
3831.12	271.004
3832.22	278.337
3833.32	285.002
3834.42	259.668
3835.52	276.333
3836.61	272.999
3837.71	275.664
3838.81	267.663
3839.91	270.995
3841.01	254.994
3842.1	285.66
3843.2	265.658
3844.3	257.657
3845.4	276.989
3846.49	262.322
3847.59	256.32
3848.68	258.986
3849.78	261.651
3850.87	265.65
3851.97	258.316
3853.06	274.981
3854.16	267.647
3855.25	269.646
3856.34	255.645
3857.44	260.31
3858.53	269.642
3859.62	263.641
3860.71	268.307
3861.81	274.972
3862.9	254.304
3863.99	257.636
3865.08	260.302
3866.17	269.634
3867.26	266.3
3868.35	266.965
3869.44	269.631
3870.53	264.963
3871.62	266.962
3872.71	262.294
3873.79	262.293
3874.88	270.958
3875.97	258.29
3877.06	262.289
3878.15	260.955
3879.23	260.954
3880.32	265.619
3881.41	260.951
3882.49	260.95
3883.58	260.949
3884.66	267.614
3885.75	256.28
3886.83	272.945
3887.92	266.278
3889	260.276
3890.08	256.275
3891.17	267.607
3892.25	266.94
3893.33	262.938
3894.42	267.604
3895.5	243.603
3896.58	256.935
3897.66	254.267
3898.74	260.266
3899.82	250.932
3900.91	262.93
3901.99	247.596
3903.07	252.261
3904.15	267.594
3905.23	246.926
3906.3	248.258
3907.38	253.59
3908.46	258.922
3909.54	254.254
3910.62	260.92
3911.7	256.919
3912.77	243.584
3913.85	254.916
3914.93	267.582
3916	251.581
3917.08	258.246
3918.16	271.579
3919.23	248.911
3920.31	262.243
3921.38	258.242
3922.46	253.574
3923.53	253.573
3924.6	258.238
3925.68	263.57
3926.75	256.236
3927.82	262.235
3928.9	242.234
3929.97	250.232
3931.04	254.898
3932.11	250.897
3933.18	248.896
3934.25	237.561
3935.33	234.227
3936.4	251.559
3937.47	245.558
3938.54	250.223
3939.61	249.555
3940.68	244.221
3941.74	246.22
3942.81	250.219
3943.88	263.551
3944.95	256.883
3946.02	248.215
3947.08	245.547
3948.15	251.546
3949.22	260.212
3950.29	241.544
3951.35	248.209
3952.42	250.875
3953.48	246.874
3954.55	244.873
3955.61	238.871
3956.68	256.204
3957.74	255.536
3958.81	245.535
3959.87	252.867
3960.93	248.199
3962	233.531
3963.06	246.197
3964.12	256.862
3965.19	250.194
3966.25	248.86
3967.31	240.859
3968.37	239.524
3969.43	246.19
3970.49	248.188
3971.55	227.521
3972.61	243.52
3973.67	239.518
3974.73	238.184
3975.79	239.516
3976.85	256.182
3977.91	240.18
3978.97	237.513
3980.03	240.178
3981.08	238.844
3982.14	230.176
3983.2	242.175
3984.25	235.507
3985.31	232.839
3986.37	234.171
3987.42	220.17
3988.48	252.169
3989.53	235.501
3990.59	240.167
3991.64	243.499
3992.7	245.497
3993.75	242.163
3994.81	241.495
3995.86	241.494
3996.91	235.493
3997.97	240.158
3999.02	241.491
