#Acq. time (s)=	10
#Accumulations=	4
#Range (cm-¹)=	60...4000
#Windows=	3
#Auto scanning=	Off
#Autofocus=	Off
#AutoExposure=	Off
#Spike filter=	Multiple accum.
#Delay time (s)=	0
#Binning=	1
#Readout mode=	Signal
#DeNoise=	Off
#ICS correction=	Off
#Dark correction=	Off
#Inst. Process=	Off
#Detector Gain=	Best Dynamic Range
#Detector ADC=	45 kHz       
#Detector temperature (°C)=	-60.1
#Instrument=	XploRA Plus
#Detector=	Syncerity OE
#Objective=	x50_VIS_LWD
#Grating=	1200 (750nm)
#Filter=	50%
#Laser=	638nm_Edge
#Slit (µm)=	100 
#Hole (µm)=	300 
#Temperature=	0
#StageXY=	75x50mm Scan+
#StageZ=	Z motor
#X (µm)=	0
#Y (µm)=	0
#Z (µm)=	42.8
#Full time(mm:ss)=	2:18
#Project=	
#Sample=	
#Site=	
#Title=	Quartz_15_47_53_2026_03_30_4_10 s_638nm_Edge_1200 (750nm)_x50_VIS_LWD_100 µm_300 µm_50%
#Remark=	
#Date=	30.03.2026 15:48
#Acquired=	30.03.2026 15:48:09
#AxisType[0]=Intens
#AxisUnit[0]=Cnt
#AxisType[1]=Spectr
#AxisUnit[1]=1/cm
62.2295	1037.67
64.3928	1088.29
66.5569	912.919
68.719	946.879
70.882	848.171
73.0428	890.798
75.2031	896.757
77.3628	801.383
79.5219	862.009
81.6818	839.969
83.8397	755.262
85.997	786.555
88.1522	745.181
90.3083	763.14
92.4638	743.1
94.6187	703.726
96.773	715.685
98.9252	694.312
101.078	738.938
103.231	703.564
105.381	664.19
107.533	728.15
109.682	692.109
111.831	700.735
113.98	737.362
116.128	753.321
118.274	835.281
120.421	993.24
122.566	1319.87
124.712	2040.49
126.856	3675.12
129	4979.74
131.143	4863.7
133.286	4099.66
135.428	2858.96
137.57	1688.92
139.709	1253.54
141.85	1095.5
143.988	1010.13
146.127	994.754
148.264	957.38
150.402	928.007
152.538	871.299
154.674	851.259
156.81	846.552
158.944	835.178
161.078	782.471
163.211	843.097
165.343	833.056
167.475	841.016
169.606	888.975
171.737	886.935
173.866	932.228
175.995	940.854
178.124	1016.15
180.253	1054.77
182.379	1140.73
184.506	1219.36
186.631	1383.32
188.756	1527.28
190.881	1733.9
193.004	2047.86
195.127	2371.82
197.251	2726.45
199.373	3159.74
201.494	3723.03
203.614	4180.33
205.734	4482.29
207.853	4740.25
209.971	4651.54
212.089	4519.5
214.206	4156.13
216.323	3670.08
218.438	3135.38
220.554	2726.67
222.668	2343.3
224.783	2054.59
226.895	1833.22
229.007	1610.51
231.12	1429.13
233.231	1298.43
235.341	1245.05
237.451	1149.01
239.56	1032.31
241.669	992.265
243.777	951.558
245.884	924.184
247.991	880.144
250.096	854.77
252.202	850.73
254.307	820.022
256.41	801.315
258.514	812.608
260.616	890.568
262.719	1016.53
264.82	1143.82
266.92	1077.11
269.021	1005.74
271.12	847.032
273.219	701.658
275.317	631.617
277.414	598.244
279.511	587.536
281.607	558.829
283.701	560.789
285.797	535.415
287.891	535.375
289.984	539.334
292.077	535.294
294.17	529.92
296.261	527.213
298.351	516.505
300.442	512.465
302.531	509.758
304.62	502.384
306.708	513.677
308.795	520.97
310.882	486.262
312.968	496.222
315.054	507.515
317.139	490.808
319.224	489.434
321.308	516.727
323.39	500.686
325.473	499.312
327.553	479.939
329.635	489.898
331.715	492.524
333.794	495.15
335.874	471.11
337.952	474.403
340.03	490.362
342.107	502.322
344.183	518.281
346.259	532.241
348.334	554.2
350.409	607.493
352.483	800.119
354.557	1089.41
356.628	1135.37
358.701	1022
360.771	827.291
362.842	631.917
364.912	540.543
366.982	487.169
369.05	478.462
371.118	469.755
373.185	490.381
375.251	496.341
377.317	506.3
379.383	528.26
381.448	520.886
383.512	519.512
385.576	521.471
387.639	546.764
389.7	598.057
391.762	818.017
393.822	1027.98
395.883	1122.6
397.942	1163.9
400.001	1067.85
402.06	848.481
404.117	741.774
406.174	623.733
408.23	535.693
410.286	540.986
412.341	507.612
414.396	507.571
416.45	505.531
418.502	525.49
420.554	520.783
422.607	507.409
424.657	528.702
426.708	532.662
428.758	550.621
430.808	576.581
432.856	586.54
434.904	579.833
436.951	624.459
438.997	647.085
441.043	699.711
443.089	781.671
445.133	898.964
447.178	1078.26
449.222	1338.88
451.263	1598.18
453.306	1929.47
455.348	2475.43
457.388	3424.05
459.429	5258.68
461.468	8678.64
463.507	13240.6
465.545	16019.2
467.584	15748.5
469.621	13354.5
471.657	9741.77
473.693	6442.4
475.727	4310.36
477.761	3166.98
479.796	2478.28
481.829	2023.57
483.861	1716.86
485.893	1501.49
487.924	1344.78
489.955	1231.41
491.985	1141.37
494.014	1057.33
496.044	994.618
498.072	939.911
500.099	886.537
502.126	857.163
504.152	829.123
506.178	783.749
508.201	750.375
510.226	715.001
512.25	699.628
514.272	677.587
516.295	669.547
518.316	668.173
520.338	653.466
522.358	636.092
524.378	631.385
526.396	593.344
528.416	589.97
530.434	593.263
532.451	596.556
534.467	577.182
536.483	563.808
538.499	575.101
540.514	545.061
542.527	554.354
544.541	550.313
546.553	542.939
548.566	556.899
550.577	529.525
552.588	532.818
554.599	535.444
556.609	520.737
558.618	521.363
560.626	497.989
562.634	497.949
564.64	495.908
566.646	507.201
568.653	491.16
570.657	485.787
572.662	481.746
574.667	484.372
576.67	472.332
578.672	470.291
580.675	466.918
582.676	476.21
584.677	471.503
586.677	483.463
588.676	455.422
590.675	476.715
592.674	487.341
594.671	471.967
596.668	483.927
598.665	465.22
600.66	481.846
602.656	481.139
604.65	477.765
606.643	465.724
608.637	443.017
610.63	462.31
612.622	457.603
614.613	452.896
616.604	462.189
618.594	463.482
620.584	451.441
622.571	461.401
624.56	472.027
626.548	461.32
628.534	459.279
630.52	465.905
632.507	445.198
634.491	439.824
636.476	451.784
638.459	455.743
640.444	461.036
642.426	455.662
644.407	450.955
646.388	442.248
648.369	440.207
650.35	440.834
652.328	443.46
654.308	452.753
656.286	438.045
658.264	451.338
660.24	439.298
662.216	435.924
664.193	449.217
666.168	429.176
668.143	423.136
670.117	436.429
672.089	426.388
674.061	433.014
676.034	447.641
678.006	454.267
679.975	452.226
681.946	452.852
683.915	464.812
685.884	462.771
687.853	482.731
689.82	491.357
691.787	551.317
693.753	593.276
695.719	643.236
697.684	693.862
699.649	671.821
701.612	620.448
703.576	541.74
705.539	499.7
707.5	490.993
709.461	466.952
711.423	464.245
713.383	452.205
715.342	452.164
717.301	431.457
719.259	436.75
721.217	447.376
723.174	446.669
725.131	441.295
727.087	439.921
729.041	449.214
730.996	434.507
732.95	428.466
734.904	435.092
736.856	433.052
738.808	435.678
740.761	433.638
742.711	440.931
744.662	426.89
746.611	436.183
748.559	437.476
750.508	430.102
752.456	436.728
754.403	420.688
756.35	432.647
758.295	439.273
760.241	438.566
762.186	419.192
764.13	443.818
766.073	432.445
768.017	422.404
769.959	441.697
771.9	429.656
773.841	432.283
775.782	435.575
777.722	440.202
779.66	456.161
781.6	465.454
783.537	466.747
785.474	469.373
787.412	485.333
789.348	498.625
791.283	519.918
793.218	568.544
795.152	605.171
797.086	627.797
799.02	655.756
800.951	649.049
802.883	650.342
804.814	612.968
806.745	566.928
808.675	565.554
810.604	526.18
812.534	487.473
814.462	462.766
816.389	471.392
818.316	475.351
820.243	466.644
822.168	464.604
824.093	460.563
826.018	461.189
827.941	463.149
829.865	452.442
831.787	453.735
833.709	447.027
835.632	443.654
837.552	446.946
839.473	458.906
841.392	460.199
843.311	443.492
845.229	436.784
847.147	457.411
849.065	449.37
850.981	427.33
852.897	452.622
854.812	446.582
856.727	450.542
858.642	454.501
860.555	455.127
862.468	443.753
864.38	451.713
866.292	441.006
868.203	432.965
870.113	452.258
872.024	419.551
873.932	443.51
875.842	441.47
877.75	424.096
879.657	428.722
881.565	434.682
883.471	445.975
885.376	431.267
887.282	451.227
889.186	439.853
891.089	439.813
892.993	432.439
894.896	432.398
896.797	441.691
898.7	452.984
900.6	444.944
902.5	436.236
904.399	426.863
906.298	446.822
908.197	420.782
910.095	440.074
911.992	438.701
913.889	427.327
915.786	427.953
917.68	434.579
919.576	425.205
921.47	429.165
923.363	422.458
925.257	440.417
927.149	420.377
929.041	433.003
930.932	439.629
932.823	413.588
934.713	434.215
936.602	429.508
938.491	420.134
940.379	419.427
942.267	401.386
944.154	418.679
946.04	399.305
947.927	406.598
949.812	405.891
951.696	423.184
953.58	408.476
955.463	402.436
957.346	395.729
959.229	406.355
961.11	402.981
962.991	400.274
964.871	410.233
966.752	402.86
968.631	393.486
970.51	403.445
972.388	394.072
974.265	390.698
976.142	381.324
978.019	389.283
979.893	384.576
981.769	375.202
983.643	390.495
985.518	383.788
987.391	373.081
989.263	389.04
991.135	380.333
993.006	376.959
994.877	385.586
996.748	376.212
998.618	370.171
1000.49	376.131
1002.35	376.757
1004.22	376.716
1006.09	372.676
1007.96	386.635
1009.82	389.262
1011.69	363.221
1013.55	379.181
1015.42	369.807
1017.28	371.1
1019.15	377.059
1021.01	374.352
1022.87	384.978
1024.73	370.271
1026.59	374.231
1028.45	384.19
1030.31	384.816
1032.17	370.776
1034.03	389.402
1035.89	377.361
1037.75	379.321
1039.6	377.28
1041.46	385.24
1043.31	388.533
1045.17	386.492
1047.02	379.118
1048.88	387.745
1050.73	389.038
1052.58	386.997
1054.43	400.957
1056.28	391.583
1058.14	395.542
1059.99	422.168
1061.84	435.461
1063.68	455.421
1065.53	498.047
1067.38	515.34
1069.23	513.966
1071.08	490.592
1072.92	461.885
1074.77	450.511
1076.61	409.804
1078.46	421.763
1080.3	419.056
1082.14	405.016
1083.99	400.975
1085.83	414.935
1087.67	397.561
1089.51	390.187
1091.35	390.813
1093.19	378.773
1095.03	371.399
1096.87	365.359
1098.7	382.651
1100.54	353.278
1102.38	371.237
1104.21	371.197
1106.05	385.156
1107.88	360.449
1109.72	385.742
1111.55	363.701
1113.39	350.994
1115.22	370.287
1117.05	358.246
1118.88	354.873
1120.71	374.165
1122.54	365.458
1124.37	362.751
1126.2	367.377
1128.03	347.337
1129.86	374.63
1131.69	377.256
1133.51	351.882
1135.34	367.175
1137.16	399.134
1138.99	376.427
1140.81	371.053
1142.64	393.013
1144.46	407.639
1146.28	394.265
1148.1	418.225
1149.93	412.184
1151.75	432.144
1153.57	472.103
1155.39	525.396
1157.21	596.022
1159.03	714.648
1160.84	823.941
1162.66	868.568
1164.48	845.194
1166.29	747.82
1168.11	643.779
1169.93	545.072
1171.74	458.365
1173.55	432.991
1175.37	410.951
1177.18	388.91
1178.99	372.87
1180.8	363.496
1182.61	374.122
1184.42	353.415
1186.24	352.041
1188.04	362.667
1189.85	353.96
1191.66	355.92
1193.47	349.212
1195.28	351.839
1197.08	345.131
1198.89	351.091
1200.69	348.384
1202.5	344.343
1204.3	358.303
1206.11	352.262
1207.91	358.889
1209.71	352.848
1211.51	345.474
1213.31	368.1
1215.12	346.06
1216.92	357.353
1218.72	349.312
1220.51	357.938
1222.31	361.231
1224.11	360.524
1225.91	365.15
1227.7	370.443
1229.5	377.736
1231.3	384.362
1233.09	376.322
1234.88	386.948
1236.68	372.907
1238.47	378.867
1240.26	376.826
1242.06	372.119
1243.85	370.079
1245.64	370.038
1247.43	360.664
1249.22	355.957
1251.01	360.583
1252.8	350.543
1254.59	348.502
1256.37	351.129
1258.16	347.755
1259.95	341.048
1261.73	345.007
1263.52	340.967
1265.3	348.926
1267.08	336.886
1268.87	336.845
1270.65	344.138
1272.43	337.431
1274.22	332.724
1276	331.35
1277.78	344.643
1279.56	327.269
1281.34	335.895
1283.12	325.188
1284.89	347.147
1286.67	326.44
1288.45	334.4
1290.23	331.693
1292	344.319
1293.78	333.612
1295.55	327.571
1297.33	334.864
1299.1	342.157
1300.87	334.783
1302.65	341.409
1304.42	310.035
1306.19	327.328
1307.96	323.288
1309.73	313.247
1311.5	325.207
1313.27	312.5
1315.04	333.792
1316.81	317.752
1318.58	321.045
1320.34	318.338
1322.11	323.63
1323.87	319.59
1325.64	329.549
1327.4	318.176
1329.17	320.135
1330.93	324.095
1332.7	324.054
1334.46	325.347
1336.22	317.306
1337.98	327.266
1339.74	314.559
1341.5	325.852
1343.26	320.478
1345.02	321.771
1346.78	305.063
1348.54	325.69
1350.29	328.316
1352.05	332.275
1353.81	314.235
1355.56	306.861
1357.32	322.821
1359.07	333.447
1360.83	323.406
1362.58	317.366
1364.33	323.992
1366.08	325.951
1367.84	306.578
1369.59	322.537
1371.34	315.163
1373.09	317.789
1374.84	315.749
1376.59	323.042
1378.34	316.335
1380.08	316.294
1381.83	315.587
1383.58	316.213
1385.32	317.506
1387.07	321.466
1388.81	314.758
1390.56	303.385
1392.3	298.677
1394.05	307.304
1395.79	318.596
1397.53	305.889
1399.27	310.515
1401.01	319.808
1402.75	315.101
1404.49	314.394
1406.23	310.353
1407.97	296.98
1409.71	324.272
1411.45	306.232
1413.19	315.525
1414.92	308.151
1416.66	310.777
1418.39	312.07
1420.13	312.03
1421.86	319.989
1423.6	314.615
1425.33	317.241
1427.06	317.868
1428.8	308.494
1430.53	315.787
1432.26	315.746
1433.99	322.372
1435.72	320.998
1437.45	303.625
1439.18	308.251
1440.9	322.21
1442.63	307.503
1444.36	319.463
1446.09	304.755
1447.81	304.715
1449.54	298.008
1451.26	312.634
1452.99	300.593
1454.71	317.22
1456.43	292.512
1458.16	291.805
1459.88	319.765
1461.6	312.391
1463.32	284.351
1465.04	294.977
1466.76	305.603
1468.48	309.562
1470.2	315.522
1471.92	301.481
1473.64	307.441
1475.35	304.734
1477.07	292.027
1478.79	294.653
1480.5	309.279
1482.22	303.905
1483.93	289.865
1485.64	302.491
1487.36	305.784
1489.07	295.077
1490.78	309.036
1492.49	289.662
1494.21	314.955
1495.92	300.915
1497.63	290.207
1499.34	288.834
1501.04	294.793
1502.75	299.419
1504.46	299.379
1506.17	296.005
1507.87	310.631
1509.58	301.257
1511.29	286.55
1512.99	295.176
1514.7	294.469
1516.4	299.095
1518.1	286.388
1519.81	297.681
1521.51	296.974
1523.21	290.933
1524.91	298.893
1526.61	287.519
1528.31	304.812
1530.01	297.438
1531.71	302.064
1533.41	290.024
1535.11	299.983
1536.8	295.943
1538.5	303.236
1540.2	303.195
1541.89	283.155
1543.59	287.781
1545.28	275.74
1546.98	293.7
1548.67	282.326
1550.36	295.619
1552.06	287.578
1553.75	291.538
1555.44	280.831
1557.13	296.79
1558.82	288.083
1560.51	294.042
1562.2	292.669
1563.89	301.295
1565.58	289.254
1567.26	300.547
1568.95	299.173
1570.64	281.133
1572.32	281.759
1574.01	289.052
1575.69	303.678
1577.38	285.638
1579.06	310.93
1580.74	294.223
1582.43	292.849
1584.11	286.142
1585.79	287.435
1587.47	284.061
1589.15	288.021
1590.83	279.314
1592.51	283.94
1594.19	293.233
1595.87	283.859
1597.55	287.152
1599.22	294.445
1600.9	283.071
1602.58	283.697
1604.25	288.99
1605.93	289.616
1607.6	293.575
1609.27	281.535
1610.95	296.828
1612.62	280.787
1614.29	280.08
1615.97	276.04
1617.64	286.666
1619.31	287.292
1620.98	294.585
1622.65	274.544
1624.32	297.171
1625.98	287.13
1627.65	291.09
1629.32	273.049
1630.99	287.009
1632.65	272.968
1634.32	286.261
1635.98	287.554
1637.65	280.847
1639.31	275.473
1640.98	285.432
1642.64	283.392
1644.3	280.685
1645.97	278.644
1647.63	286.604
1649.29	280.563
1650.95	273.189
1652.61	269.149
1654.27	282.442
1655.93	275.734
1657.58	272.361
1659.24	278.32
1660.9	281.613
1662.56	282.239
1664.21	268.199
1665.87	273.492
1667.52	278.118
1669.18	270.744
1670.83	280.037
1672.49	271.996
1674.14	282.622
1675.79	279.249
1677.44	274.541
1679.09	271.168
1680.75	275.794
1682.39	276.42
1684.05	274.379
1685.69	275.006
1687.34	282.965
1688.99	263.591
1690.64	279.551
1692.29	282.177
1693.93	270.803
1695.58	274.763
1697.22	266.722
1698.87	274.682
1700.51	267.308
1702.16	265.267
1703.8	269.894
1705.44	267.186
1707.09	267.813
1708.73	267.772
1710.37	271.065
1712.01	268.358
1713.65	270.317
1715.29	260.943
1716.93	265.57
1718.57	256.196
1720.2	264.822
1721.84	262.115
1723.48	264.741
1725.12	262.701
1726.75	271.327
1728.39	248.619
1730.02	254.579
1731.66	262.539
1733.29	247.831
1734.92	253.791
1736.56	258.417
1738.19	255.043
1739.82	258.336
1741.45	269.629
1743.08	254.255
1744.71	264.881
1746.34	245.507
1747.97	265.467
1749.6	256.093
1751.23	263.386
1752.85	256.012
1754.48	255.972
1756.11	239.264
1757.73	253.224
1759.36	261.183
1760.98	258.476
1762.61	239.739
1764.23	258.66
1765.85	241.6
1767.48	257.582
1769.1	243.519
1770.72	259.496
1772.34	252.754
1773.96	263.029
1775.58	246.011
1777.2	242.024
1778.82	238.85
1780.44	251.831
1782.06	242.83
1783.67	241.882
1785.29	247.681
1786.91	252.375
1788.52	244.697
1790.14	240.937
1791.75	249.997
1793.37	250.584
1794.98	240.25
1796.59	242.688
1798.21	250.839
1799.82	246.482
1801.43	256.937
1803.04	247.869
1804.65	245.798
1806.26	249.382
1807.87	241.375
1809.48	242.367
1811.09	234.171
1812.7	245.981
1814.3	249.541
1815.91	243.658
1817.52	242.945
1819.12	237.747
1820.73	238.994
1822.34	243.449
1823.94	235.916
1825.54	240.058
1827.15	239.117
1828.75	234.601
1830.35	240.477
1831.95	234.593
1833.55	239.155
1835.15	242.006
1836.75	237.108
1838.35	232.818
1839.95	235.768
1841.55	234.696
1843.15	239.727
1844.75	237.463
1846.34	225.705
1847.94	229.64
1849.54	239.758
1851.13	232.933
1852.73	226.023
1854.32	239.657
1855.92	231.956
1857.51	227.451
1859.1	229.539
1860.69	227.312
1862.29	231.177
1863.88	229.087
1865.47	231.82
1867.06	234.851
1868.65	232.127
1870.24	233.035
1871.83	230.49
1873.41	227.02
1875	225.187
1876.59	228.107
1878.18	226.591
1879.76	231.918
1881.35	233.985
1882.93	229.746
1884.52	227.286
1886.1	234.42
1887.68	231.326
1889.27	246.709
1890.85	226.453
1892.43	232.938
1894.01	228.996
1895.59	219.551
1897.18	226.778
1898.75	232.377
1900.33	222.03
1901.91	231.809
1903.49	230.19
1905.07	230.825
1906.65	235.001
1908.22	228.631
1909.8	232.51
1911.38	229.711
1912.95	221.103
1914.53	226.866
1916.1	221.343
1917.67	223.781
1919.25	217.695
1920.82	221.756
1922.39	227.38
1923.96	224.968
1925.53	222.704
1927.1	223.27
1928.68	226.8
1929.45	230.36
1931.06	216.996
1932.67	231.633
1934.28	218.936
1935.88	220.906
1937.49	226.209
1939.1	220.179
1940.7	230.148
1942.31	222.785
1943.92	224.088
1945.52	224.058
1947.13	226.694
1948.73	220.664
1950.34	228.634
1951.94	225.27
1953.54	227.906
1955.15	220.543
1956.75	217.179
1958.35	217.816
1959.95	208.452
1961.55	216.422
1963.15	225.725
1964.75	221.695
1966.35	221.665
1967.95	224.301
1969.55	215.604
1971.15	222.241
1972.74	232.21
1974.34	216.847
1975.94	224.15
1977.53	228.786
1979.13	217.423
1980.73	222.726
1982.32	216.029
1983.91	230.665
1985.51	218.635
1987.1	217.271
1988.7	222.575
1990.29	219.211
1991.88	230.514
1993.47	222.484
1995.06	219.12
1996.65	209.09
1998.24	221.06
1999.83	225.03
2001.42	226.999
2003.01	215.636
2004.6	217.605
2006.19	217.575
2007.78	226.878
2009.36	213.515
2010.95	228.818
2012.54	228.788
2014.12	228.757
2015.71	214.727
2017.29	217.364
2018.88	212.667
2020.46	225.303
2022.04	218.606
2023.63	229.909
2025.21	217.212
2026.79	225.849
2028.37	220.485
2029.95	215.788
2031.53	222.425
2033.12	224.395
2034.7	229.031
2036.27	219.667
2037.85	229.637
2039.43	226.274
2041.01	224.91
2042.59	224.88
2044.16	222.85
2045.74	206.819
2047.32	216.122
2048.89	209.425
2050.47	218.062
2052.04	216.698
2053.62	222.001
2055.19	219.305
2056.77	207.941
2058.34	216.577
2059.91	217.88
2061.48	215.85
2063.06	221.82
2064.63	220.456
2066.2	213.76
2067.77	211.729
2069.34	217.699
2070.91	224.335
2072.48	216.972
2074.04	212.275
2075.61	212.911
2077.18	212.881
2078.75	204.184
2080.31	208.821
2081.88	210.124
2083.45	219.427
2085.01	208.063
2086.58	210.033
2088.14	205.336
2089.7	209.306
2091.27	211.942
2092.83	203.912
2094.39	215.882
2095.96	212.518
2097.52	203.155
2099.08	218.458
2100.64	225.094
2102.2	211.731
2103.76	215.034
2105.32	219.67
2106.88	214.973
2108.44	216.276
2110	212.913
2111.55	204.216
2113.11	205.519
2114.67	221.489
2116.23	212.125
2117.78	202.762
2119.34	217.398
2120.89	212.034
2122.45	212.684
2124	214
2125.55	211.316
2127.11	210.632
2128.66	215.948
2130.21	211.931
2131.76	209.247
2133.32	211.23
2134.87	213.879
2136.42	204.529
2137.97	206.512
2139.52	220.494
2141.07	209.144
2142.62	198.46
2144.16	215.776
2145.71	217.759
2147.26	209.741
2148.81	202.391
2150.35	211.707
2151.9	219.023
2153.44	212.339
2154.99	206.989
2156.53	211.638
2158.08	215.621
2159.62	212.27
2161.17	210.92
2162.71	209.569
2164.25	202.885
2165.79	206.868
2167.34	218.184
2168.88	204.833
2170.42	219.483
2171.96	210.132
2173.5	196.115
2175.04	202.098
2176.58	208.747
2178.11	215.397
2179.65	194.046
2181.19	200.696
2182.73	203.345
2184.26	200.661
2185.8	205.31
2187.34	195.96
2188.87	197.276
2190.41	211.259
2191.94	195.908
2193.48	205.224
2195.01	197.874
2196.54	191.19
2198.07	201.173
2199.61	199.822
2201.14	195.805
2202.67	203.788
2204.2	205.77
2205.73	207.753
2207.26	206.402
2208.79	205.052
2210.32	207.701
2211.85	210.351
2213.38	205
2214.91	192.983
2216.43	202.299
2217.96	201.615
2219.49	204.265
2221.01	206.247
2222.54	203.563
2224.06	213.546
2225.59	204.196
2227.11	202.178
2228.64	200.161
2230.16	204.811
2231.68	209.46
2233.21	192.776
2234.73	194.092
2236.25	196.075
2237.77	207.391
2239.29	204.04
2240.81	200.023
2242.33	210.006
2243.85	193.989
2245.37	199.305
2246.89	205.954
2248.41	205.27
2249.93	207.253
2251.44	203.903
2252.96	195.219
2254.48	204.535
2255.99	205.184
2257.51	205.167
2259.02	193.15
2260.54	202.466
2262.05	201.115
2263.57	210.431
2265.08	201.081
2266.59	201.73
2268.1	202.38
2269.62	203.029
2271.13	200.345
2272.64	198.328
2274.15	210.977
2275.66	209.627
2277.17	208.276
2278.68	196.259
2280.19	205.575
2281.7	198.891
2283.2	199.541
2284.71	196.857
2286.22	196.839
2287.73	206.822
2289.23	200.805
2290.74	198.121
2292.24	202.104
2293.75	204.753
2295.25	208.736
2296.76	207.385
2298.26	198.035
2299.76	205.351
2301.27	197.334
2302.77	193.316
2304.27	197.299
2305.77	200.615
2307.27	202.598
2308.77	201.914
2310.28	193.23
2311.77	201.88
2313.27	199.862
2314.77	192.512
2316.27	199.161
2317.77	188.477
2319.27	199.793
2320.76	202.443
2322.26	192.426
2323.76	200.408
2325.25	193.725
2326.75	205.041
2328.24	195.69
2329.74	191.006
2331.23	192.989
2332.73	200.972
2334.22	192.954
2335.71	198.271
2337.2	194.253
2338.7	200.903
2340.19	201.552
2341.68	193.535
2343.17	205.518
2344.66	202.834
2346.15	190.817
2347.64	196.133
2349.13	192.115
2350.62	195.431
2352.1	191.414
2353.59	192.064
2355.08	200.713
2356.56	199.363
2358.05	189.345
2359.54	191.995
2361.02	195.977
2362.51	197.96
2363.99	190.61
2365.48	189.259
2366.96	202.575
2368.44	192.558
2369.93	195.874
2371.41	199.19
2372.89	189.84
2374.37	193.822
2375.85	193.805
2377.33	191.788
2378.81	183.104
2380.29	196.42
2381.77	194.403
2383.25	187.052
2384.73	194.368
2386.21	187.018
2387.69	199.667
2389.16	196.317
2390.64	193.633
2392.12	197.615
2393.59	190.265
2395.07	194.248
2396.54	194.23
2398.02	201.547
2399.49	194.863
2400.96	198.845
2402.44	191.495
2403.91	198.811
2405.38	194.127
2406.85	187.443
2408.33	187.426
2409.8	188.742
2411.27	200.058
2412.74	191.374
2414.21	190.024
2415.68	188.006
2417.15	199.322
2418.62	183.972
2420.08	186.621
2421.55	186.604
2423.02	197.92
2424.49	191.903
2425.95	186.552
2427.42	196.535
2428.88	190.518
2430.35	185.834
2431.81	185.817
2433.28	189.799
2434.74	179.782
2436.21	185.098
2437.67	183.748
2439.13	195.064
2440.59	185.047
2442.05	182.363
2443.52	191.012
2444.98	184.995
2446.44	178.311
2447.9	186.96
2449.36	186.943
2450.81	192.259
2452.27	184.909
2453.73	181.558
2455.19	190.874
2456.65	185.524
2458.1	182.173
2459.56	186.823
2461.02	185.472
2462.47	190.121
2463.93	188.771
2465.38	188.754
2466.84	195.403
2468.29	188.719
2469.74	183.369
2471.2	185.351
2472.65	184.001
2474.1	184.65
2475.55	191.966
2477.01	195.949
2478.46	187.265
2479.91	186.581
2481.36	197.897
2482.81	186.547
2484.26	196.529
2485.71	186.512
2487.15	180.495
2488.6	185.811
2490.05	185.794
2491.5	191.777
2492.94	177.093
2494.39	189.075
2495.84	185.058
2497.28	183.708
2498.73	187.69
2500.17	181.006
2501.61	181.656
2503.06	186.305
2504.5	188.288
2505.95	170.938
2507.39	182.254
2508.83	174.236
2510.27	183.553
2511.71	188.202
2513.15	184.851
2514.59	187.501
2516.03	188.817
2517.47	194.133
2518.91	179.449
2520.35	193.432
2521.79	186.748
2523.23	188.731
2524.66	182.713
2526.1	186.03
2527.54	176.012
2528.97	185.328
2530.41	179.978
2531.84	175.294
2533.28	179.943
2534.71	185.259
2536.15	190.576
2537.58	179.225
2539.01	180.541
2540.45	183.857
2541.88	182.507
2543.31	185.823
2544.74	183.139
2546.17	192.455
2547.6	184.438
2549.04	181.754
2550.47	189.736
2551.89	186.386
2553.32	189.702
2554.75	185.685
2556.18	185.001
2557.61	184.317
2559.04	184.966
2560.46	183.616
2561.89	188.265
2563.31	179.581
2564.74	182.897
2566.17	180.88
2567.59	186.863
2569.01	177.512
2570.44	184.162
2571.86	180.811
2573.28	180.127
2574.71	174.777
2576.13	179.426
2577.55	188.076
2578.97	173.392
2580.39	180.041
2581.81	176.691
2583.23	176.673
2584.65	168.656
2586.07	176.639
2587.49	183.955
2588.91	187.271
2590.33	187.92
2591.74	173.903
2593.16	182.553
2594.58	183.202
2596	184.518
2597.41	179.834
2598.83	189.15
2600.24	184.466
2601.66	184.449
2603.07	187.765
2604.48	175.748
2605.9	178.398
2607.31	179.047
2608.72	181.696
2610.14	177.012
2611.55	187.662
2612.96	168.978
2614.37	175.627
2615.78	180.277
2617.19	180.26
2618.6	174.242
2620.01	183.558
2621.42	172.208
2622.83	192.191
2624.23	176.84
2625.64	184.823
2627.05	171.472
2628.46	172.122
2629.86	182.771
2631.27	189.421
2632.67	180.07
2634.08	176.719
2635.48	181.369
2636.89	186.018
2638.29	176.001
2639.69	171.317
2641.1	183.3
2642.5	178.616
2643.9	175.932
2645.3	177.248
2646.7	179.231
2648.11	173.88
2649.51	181.863
2650.91	174.513
2652.31	176.495
2653.71	178.478
2655.1	176.461
2656.5	181.777
2657.9	178.426
2659.3	184.409
2660.69	178.392
2662.09	181.041
2663.49	186.357
2664.88	171.674
2666.28	173.656
2667.67	185.639
2669.07	180.955
2670.46	176.938
2671.86	172.921
2673.25	173.57
2674.64	177.553
2676.04	182.202
2677.43	178.852
2678.82	178.834
2680.21	171.484
2681.6	174.133
2682.99	176.783
2684.38	176.099
2685.77	176.082
2687.16	170.731
2688.55	168.047
2689.94	174.03
2691.33	182.013
2692.71	171.995
2694.1	169.978
2695.49	174.628
2696.88	183.277
2698.26	182.593
2699.65	180.576
2701.03	178.559
2702.42	171.875
2703.8	191.857
2705.18	174.507
2706.57	180.49
2707.95	173.139
2709.33	171.789
2710.72	179.771
2712.1	171.087
2713.48	185.737
2714.86	178.386
2716.24	177.702
2717.62	175.685
2719	185.001
2720.38	170.984
2721.76	176.967
2723.14	173.616
2724.52	171.599
2725.89	180.248
2727.27	164.231
2728.65	174.881
2730.02	180.863
2731.4	178.846
2732.78	172.162
2734.15	170.812
2735.53	173.461
2736.9	173.444
2738.27	172.093
2739.65	178.076
2741.02	169.392
2742.39	167.375
2743.77	172.691
2745.14	174.674
2746.51	168.656
2747.88	175.306
2749.25	169.289
2750.62	173.938
2751.99	171.921
2753.36	175.904
2754.73	169.22
2756.1	179.202
2757.47	167.185
2758.84	175.168
2760.2	166.484
2761.57	176.467
2762.94	176.45
2764.3	175.766
2765.67	174.415
2767.03	181.065
2768.4	175.714
2769.76	177.697
2771.13	168.346
2772.49	172.996
2773.86	170.978
2775.22	168.961
2776.58	168.944
2777.94	172.26
2779.3	173.576
2780.67	164.225
2782.03	172.208
2783.39	168.191
2784.75	175.507
2786.11	173.49
2787.47	160.139
2788.83	174.122
2790.18	170.105
2791.54	169.421
2792.9	176.737
2794.26	169.386
2795.61	175.369
2796.97	176.019
2798.33	172.668
2799.68	162.651
2801.04	167.3
2802.39	174.616
2803.75	179.932
2805.1	167.915
2806.45	183.898
2807.81	167.214
2809.16	174.53
2810.51	175.18
2811.86	167.829
2813.22	170.478
2814.57	176.461
2815.92	174.444
2817.27	167.76
2818.62	164.409
2819.97	171.059
2821.32	166.375
2822.67	163.691
2824.01	166.341
2825.36	176.99
2826.71	178.306
2828.06	154.955
2829.4	173.605
2830.75	171.588
2832.1	162.237
2833.44	164.22
2834.79	174.869
2836.13	168.852
2837.48	167.501
2838.82	166.151
2840.16	176.8
2841.51	170.116
2842.85	167.433
2844.19	168.082
2845.53	155.398
2846.87	172.047
2848.22	174.697
2849.56	160.68
2850.9	178.662
2852.24	177.979
2853.58	162.628
2854.92	169.277
2856.25	163.26
2857.59	163.91
2858.93	169.226
2860.27	162.542
2861.6	175.191
2862.94	171.174
2864.28	179.823
2865.61	165.139
2866.95	167.789
2868.28	175.772
2869.62	166.421
2870.95	169.07
2872.29	161.053
2873.62	173.036
2874.95	164.352
2876.29	159.668
2877.62	160.984
2878.95	163.634
2880.28	171.617
2881.61	174.933
2882.94	165.582
2884.27	159.565
2885.6	163.548
2886.93	168.197
2888.26	175.513
2889.59	168.162
2890.92	173.479
2892.25	173.461
2893.57	166.777
2894.9	158.76
2896.23	172.743
2897.55	160.726
2898.88	178.042
2900.2	169.358
2901.53	170.007
2902.85	157.323
2904.18	166.64
2905.5	167.289
2906.83	162.605
2908.15	160.588
2909.47	175.237
2910.79	173.887
2912.12	161.203
2913.44	157.186
2914.76	163.168
2916.08	165.818
2917.4	165.134
2918.72	169.117
2920.04	155.766
2921.36	161.082
2922.68	163.065
2923.99	175.714
2925.31	163.697
2926.63	169.013
2927.95	166.329
2929.26	158.979
2930.58	170.295
2931.89	171.611
2933.21	168.927
2934.53	160.243
2935.84	156.892
2937.15	167.542
2938.47	166.191
2939.78	160.174
2941.09	169.49
2942.41	152.14
2943.72	164.122
2945.03	158.105
2946.34	164.755
2947.65	164.737
2948.96	158.053
2950.27	167.37
2951.58	158.686
2952.89	158.668
2954.2	158.651
2955.51	159.967
2956.82	151.283
2958.13	151.933
2959.44	154.582
2960.74	161.232
2962.05	165.214
2963.36	157.864
2964.66	165.847
2965.97	152.496
2967.27	153.145
2968.58	158.462
2969.88	159.111
2971.19	160.427
2972.49	161.743
2973.79	161.726
2975.09	155.042
2976.4	157.025
2977.7	155.008
2979	157.657
2980.3	158.306
2981.6	161.622
2982.9	166.272
2984.2	164.921
2985.5	149.571
2986.8	157.554
2988.1	164.203
2989.4	162.852
2990.7	162.835
2991.99	164.151
2993.29	154.134
2994.59	155.45
2995.88	157.433
2997.18	141.416
2998.48	157.398
2999.77	152.714
3001.07	163.364
3002.36	158.013
3003.66	162.663
3004.95	156.646
3006.24	159.295
3007.54	155.944
3008.83	162.594
3010.12	163.243
3011.41	150.559
3012.7	153.875
3013.99	158.525
3015.28	151.841
3016.57	150.49
3017.86	158.473
3019.15	159.789
3020.44	157.772
3021.73	154.421
3023.02	158.404
3024.31	160.387
3025.6	155.036
3026.88	151.686
3028.17	172.335
3029.46	158.318
3030.74	158.301
3032.03	155.617
3033.31	158.933
3034.6	148.249
3035.88	149.565
3037.16	144.881
3038.45	164.864
3039.73	163.513
3041.01	154.83
3042.3	154.146
3043.58	151.462
3044.86	150.778
3046.14	151.427
3047.42	159.41
3048.7	156.059
3049.98	164.042
3051.26	156.025
3052.54	156.008
3053.82	156.657
3055.1	159.307
3056.38	151.956
3057.65	144.605
3058.93	159.255
3060.21	157.904
3061.48	163.887
3062.76	142.536
3064.04	158.519
3065.31	148.502
3066.59	156.485
3067.86	155.801
3069.13	153.784
3070.41	149.1
3071.68	159.082
3072.95	145.065
3074.23	149.048
3075.5	157.697
3076.77	157.013
3078.04	154.996
3079.31	154.979
3080.58	152.254
3081.86	168.029
3083.12	156.569
3084.39	150.338
3085.66	144.591
3086.93	149.347
3088.2	141.873
3089.47	156.781
3090.74	161.576
3092	167.262
3093.27	158.232
3094.54	153.124
3095.8	156.268
3097.07	158.477
3098.33	162.273
3099.6	149.331
3100.86	157.408
3102.13	152.326
3103.39	154.485
3104.65	146.911
3105.92	147.995
3107.18	145.545
3108.44	153.368
3109.7	148.581
3110.96	146.829
3112.22	141.486
3113.49	159.619
3114.75	143.761
3116.01	146.168
3117.27	147.799
3118.52	148.044
3119.78	149.631
3121.04	157.664
3122.3	149.172
3123.56	148.006
3124.81	155.54
3126.07	151.904
3127.33	147.67
3128.58	152.678
3129.84	153.091
3131.09	150.923
3132.35	152.44
3133.6	149.239
3134.86	149.189
3136.11	147.195
3137.36	146.37
3138.62	152.261
3139.87	144.331
3141.12	150.059
3142.37	149.318
3143.62	152.126
3144.87	149.477
3146.13	149.072
3147.38	144.216
3148.63	146.555
3149.88	151.111
3151.12	141.958
3152.37	147.85
3153.62	145.084
3154.87	150.284
3156.12	147.874
3157.36	149.128
3158.61	145.558
3159.86	151.776
3161.1	152.635
3162.35	150.765
3163.59	156.754
3164.84	143.93
3166.08	143.509
3167.33	150.256
3168.57	152.782
3169.81	146.967
3171.06	149.689
3172.3	146.478
3173.54	149.367
3174.78	141.567
3176.02	145.281
3177.27	151.67
3178.51	144.013
3179.75	143.531
3180.99	148.453
3182.23	147.471
3183.46	144.115
3184.7	141.545
3185.94	143.15
3187.18	141.633
3188.42	142.254
3189.65	146.563
3190.89	147.597
3192.13	149.782
3193.36	150.047
3194.6	147.836
3195.83	148.114
3197.07	143.946
3198.3	139.952
3199.54	138.65
3200.77	146.2
3202.01	144.209
3203.24	145.464
3204.47	149.902
3205.7	146.328
3206.93	145.733
3208.17	149.902
3209.4	145.196
3210.56	144.012
3211.83	148.013
3213.1	136.68
3214.37	154.013
3215.64	151.347
3216.91	140.014
3218.17	138.014
3219.44	142.681
3220.71	142.681
3221.98	130.682
3223.25	144.682
3224.51	146.016
3225.78	147.349
3227.05	139.35
3228.31	140.683
3229.58	144.017
3230.84	145.35
3232.11	140.684
3233.37	149.351
3234.64	155.351
3235.9	139.352
3237.16	148.685
3238.43	130.019
3239.69	139.353
3240.95	139.353
3242.21	140.687
3243.48	142.687
3244.74	146.687
3246	151.354
3247.26	140.688
3248.52	140.688
3249.78	145.355
3251.04	140.022
3252.3	142.022
3253.56	142.023
3254.82	142.023
3256.08	138.023
3257.33	142.023
3258.59	148.69
3259.85	143.357
3261.11	140.024
3262.36	135.358
3263.62	143.358
3264.88	140.692
3266.13	148.026
3267.39	148.026
3268.64	141.36
3269.9	146.693
3271.15	138.027
3272.41	140.027
3273.66	142.027
3274.91	136.028
3276.17	143.361
3277.42	132.028
3278.67	143.362
3279.92	133.362
3281.18	153.363
3282.43	135.363
3283.68	138.697
3284.93	140.03
3286.18	141.364
3287.43	146.031
3288.68	138.698
3289.93	133.365
3291.18	148.698
3292.43	138.699
3293.68	156.699
3294.92	143.366
3296.17	148.033
3297.42	135.367
3298.67	145.367
3299.91	142.701
3301.16	146.034
3302.4	142.701
3303.65	149.368
3304.9	136.035
3306.14	145.369
3307.39	142.036
3308.63	138.703
3309.87	142.036
3311.12	139.37
3312.36	139.37
3313.6	142.704
3314.85	133.371
3316.09	140.704
3317.33	140.038
3318.57	147.372
3319.82	138.705
3321.06	138.706
3322.3	138.039
3323.54	142.706
3324.78	134.707
3326.02	140.707
3327.26	138.707
3328.5	138.708
3329.73	143.374
3330.97	136.041
3332.21	134.708
3333.45	132.709
3334.69	128.709
3335.92	134.043
3337.16	141.376
3338.4	140.043
3339.63	141.377
3340.87	126.044
3342.1	143.378
3343.34	133.378
3344.57	134.711
3345.81	150.045
3347.04	136.712
3348.28	134.712
3349.51	140.046
3350.74	134.046
3351.98	147.38
3353.21	142.047
3354.44	131.381
3355.67	145.381
3356.9	131.381
3358.13	139.381
3359.37	146.715
3360.6	122.049
3361.83	135.382
3363.06	138.716
3364.29	133.383
3365.51	144.717
3366.74	138.717
3367.97	136.051
3369.2	142.718
3370.43	120.051
3371.66	132.052
3372.88	132.718
3374.11	136.052
3375.34	136.719
3376.56	132.053
3377.79	136.053
3379.01	136.053
3380.24	132.054
3381.46	134.721
3382.69	144.054
3383.91	140.721
3385.14	125.388
3386.36	136.722
3387.58	133.389
3388.81	134.722
3390.03	144.723
3391.25	140.056
3392.47	134.057
3393.69	134.724
3394.91	133.391
3396.14	130.724
3397.36	142.058
3398.58	134.725
3399.8	137.392
3401.01	134.059
3402.23	134.059
3403.45	132.059
3404.67	121.393
3405.89	127.393
3407.11	134.727
3408.33	136.727
3409.54	130.728
3410.76	132.061
3411.98	139.395
3413.19	123.395
3414.41	129.396
3415.62	135.396
3416.84	134.729
3418.05	124.73
3419.27	135.397
3420.48	138.064
3421.7	127.397
3422.91	123.398
3424.12	134.065
3425.34	131.398
3426.55	128.732
3427.76	138.066
3428.97	130.066
3430.19	134.066
3431.4	130.733
3432.61	130.067
3433.82	130.734
3435.03	130.067
3436.24	129.401
3437.45	139.401
3438.66	133.402
3439.87	132.069
3441.08	127.402
3442.28	127.403
3443.49	124.736
3444.7	127.403
3445.91	129.403
3447.11	138.07
3448.32	133.404
3449.53	131.404
3450.73	128.071
3451.94	135.405
3453.14	131.405
3454.35	128.739
3455.55	138.073
3456.76	130.073
3457.96	134.74
3459.17	129.407
3460.37	126.74
3461.57	136.741
3462.78	137.408
3463.98	125.408
3465.18	123.408
3466.38	124.742
3467.58	122.742
3468.78	121.409
3469.99	130.076
3471.19	118.076
3472.39	126.743
3473.59	128.744
3474.79	123.411
3475.98	124.744
3477.18	127.411
3478.38	120.078
3479.58	130.745
3480.78	129.412
3481.98	124.079
3483.17	130.746
3484.37	126.08
3485.57	130.747
3486.76	135.414
3487.96	130.081
3489.15	127.414
3490.35	136.081
3491.54	130.748
3492.74	133.415
3493.93	125.416
3495.13	129.416
3496.32	132.083
3497.51	128.75
3498.71	128.75
3499.9	130.75
3501.09	124.751
3502.28	127.418
3503.48	134.085
3504.67	126.752
3505.86	126.752
3507.05	126.086
3508.24	127.419
3509.43	122.086
3510.62	126.087
3511.81	120.754
3513	131.42
3514.19	122.087
3515.37	132.088
3516.56	127.421
3517.75	119.422
3518.94	124.755
3520.12	130.756
3521.31	121.423
3522.5	130.09
3523.68	120.757
3524.87	135.424
3526.05	122.09
3527.24	118.091
3528.43	120.758
3529.61	122.758
3530.79	128.092
3531.98	123.425
3533.16	132.759
3534.34	121.426
3535.53	123.426
3536.71	123.427
3537.89	120.094
3539.07	125.427
3540.25	126.761
3541.44	112.094
3542.62	119.428
3543.8	124.095
3544.98	127.429
3546.16	123.429
3547.34	120.763
3548.52	116.096
3549.7	123.43
3550.88	125.43
3552.05	117.431
3553.23	122.764
3554.41	125.431
3555.59	130.765
3556.76	117.432
3557.94	126.099
3559.12	122.099
3560.29	121.433
3561.47	121.433
3562.64	125.433
3563.82	108.767
3564.99	123.434
3566.17	122.768
3567.34	127.434
3568.52	118.768
3569.69	125.435
3570.86	118.102
3572.04	116.769
3573.21	122.769
3574.38	114.77
3575.55	120.103
3576.72	120.104
3577.9	115.437
3579.07	125.438
3580.24	119.438
3581.41	120.105
3582.58	133.438
3583.75	126.105
3584.92	116.772
3586.08	127.439
3587.25	124.773
3588.42	126.773
3589.59	121.44
3590.76	124.107
3591.92	114.774
3593.09	122.775
3594.26	122.108
3595.42	121.442
3596.59	124.775
3597.76	121.442
3598.92	118.109
3600.09	112.11
3601.25	122.777
3602.42	112.777
3603.58	119.444
3604.74	119.444
3605.91	126.778
3607.07	118.778
3608.23	115.445
3609.4	118.112
3610.56	123.446
3611.72	126.779
3612.88	123.446
3614.04	122.113
3615.21	126.114
3616.37	118.114
3617.53	123.448
3618.69	114.115
3619.85	122.782
3621	128.115
3622.16	118.782
3623.32	122.116
3624.48	117.449
3625.64	116.783
3626.8	120.783
3627.95	122.117
3629.11	112.117
3630.27	135.451
3631.42	116.785
3632.58	116.118
3633.74	116.119
3634.89	127.452
3636.05	110.119
3637.2	120.119
3638.36	117.453
3639.51	120.787
3640.66	119.454
3641.82	117.454
3642.97	112.121
3644.12	116.788
3645.28	124.788
3646.43	116.789
3647.58	113.455
3648.73	117.456
3649.88	122.123
3651.04	119.456
3652.19	114.123
3653.34	118.79
3654.49	116.791
3655.64	111.458
3656.79	128.125
3657.93	112.792
3659.08	120.125
3660.23	126.792
3661.38	110.792
3662.53	113.459
3663.68	129.46
3664.82	118.793
3665.97	118.794
3667.12	118.794
3668.26	125.461
3669.41	112.128
3670.55	120.795
3671.7	112.795
3672.84	121.462
3673.99	112.796
3675.13	114.796
3676.28	112.13
3677.42	118.797
3678.56	120.797
3679.71	118.797
3680.85	118.131
3681.99	119.465
3683.13	118.132
3684.28	116.132
3685.42	114.132
3686.56	115.466
3687.7	126.133
3688.84	125.466
3689.98	104.8
3691.12	114.134
3692.26	117.467
3693.4	108.801
3694.54	119.468
3695.68	119.468
3696.81	109.469
3697.95	115.469
3699.09	113.469
3700.23	110.803
3701.36	124.136
3702.5	118.803
3703.64	107.47
3704.77	116.137
3705.91	118.804
3707.04	112.138
3708.18	106.805
3709.31	116.805
3710.45	104.806
3711.58	114.806
3712.72	111.473
3713.85	114.807
3714.98	115.473
3716.12	110.807
3717.25	115.474
3718.38	113.474
3719.51	120.808
3720.64	110.808
3721.78	104.809
3722.91	118.142
3724.04	112.143
3725.17	110.143
3726.3	110.143
3727.43	116.143
3728.56	115.477
3729.69	116.811
3730.82	109.478
3731.94	113.478
3733.07	110.812
3734.2	113.479
3735.33	110.812
3736.45	112.813
3737.58	106.146
3738.71	112.813
3739.83	108.813
3740.96	113.48
3742.09	108.147
3743.21	111.481
3744.34	106.148
3745.46	110.815
3746.59	112.149
3747.71	108.149
3748.83	111.483
3749.96	109.483
3751.08	116.15
3752.2	118.15
3753.32	110.817
3754.45	112.151
3755.57	111.484
3756.69	103.485
3757.81	110.818
3758.93	106.819
3760.05	111.486
3761.17	108.819
3762.29	108.153
3763.41	114.82
3764.53	111.487
3765.65	92.1538
3766.77	108.821
3767.89	97.4878
3769.01	97.4881
3770.12	104.822
3771.24	104.822
3772.36	110.156
3773.47	106.156
3774.59	109.49
3775.71	109.49
3776.82	100.824
3777.94	110.157
3779.05	112.157
3780.17	107.491
3781.28	110.825
3782.4	100.825
3783.51	110.159
3784.63	108.826
3785.74	111.493
3786.85	109.493
3787.96	112.16
3789.08	101.494
3790.19	109.494
3791.3	106.828
3792.41	110.161
3793.52	102.161
3794.63	100.162
3795.74	113.495
3796.86	108.162
3797.97	109.496
3799.07	100.83
3800.18	110.163
3801.29	106.164
3802.4	104.831
3803.51	106.164
3804.62	108.831
3805.73	106.165
3806.83	105.498
3807.94	114.165
3809.05	116.832
3810.15	108.833
3811.26	118.833
3812.37	100.167
3813.47	103.5
3814.58	109.501
3815.68	112.834
3816.79	96.1679
3817.89	106.835
3818.99	104.168
3820.1	113.502
3821.2	109.502
3822.3	104.836
3823.41	106.17
3824.51	105.503
3825.61	94.837
3826.71	112.171
3827.81	102.171
3828.92	108.838
3830.02	110.172
3831.12	109.505
3832.22	100.172
3833.32	106.172
3834.42	110.173
3835.52	102.84
3836.61	108.173
3837.71	98.8403
3838.81	98.8406
3839.91	94.8409
3841.01	100.841
3842.1	103.508
3843.2	104.175
3844.3	104.842
3845.4	107.509
3846.49	106.176
3847.59	104.843
3848.68	100.177
3849.78	102.177
3850.87	102.177
3851.97	112.844
3853.06	103.511
3854.16	104.178
3855.25	98.1785
3856.34	108.845
3857.44	99.5125
3858.53	101.513
3859.62	100.846
3860.71	98.8467
3861.81	102.847
3862.9	100.847
3863.99	100.181
3865.08	100.181
3866.17	106.182
3867.26	97.5152
3868.35	98.8488
3869.44	102.849
3870.53	102.183
3871.62	101.516
3872.71	104.85
3873.79	99.517
3874.88	103.517
3875.97	84.851
3877.06	108.185
3878.15	98.8516
3879.23	90.8519
3880.32	99.5188
3881.41	101.519
3882.49	102.853
3883.58	105.52
3884.66	104.187
3885.75	100.187
3886.83	92.1873
3887.92	108.854
3889	98.8546
3890.08	99.5216
3891.17	100.189
3892.25	90.1889
3893.33	98.8558
3894.42	97.5228
3895.5	93.5231
3896.58	98.1901
3897.66	96.8571
3898.74	100.191
3899.82	108.191
3900.91	94.858
3901.99	101.525
3903.07	86.1919
3904.15	94.8589
3905.23	100.859
3906.3	94.1928
3907.38	96.1931
3908.46	94.1934
3909.54	88.8604
3910.62	103.527
3911.7	88.1943
3912.77	102.195
3913.85	102.862
3914.93	100.862
3916	93.5289
3917.08	99.5292
3918.16	104.863
3919.23	91.5298
3920.31	100.197
3921.38	98.8638
3922.46	96.1974
3923.53	89.531
3924.6	102.865
3925.68	101.532
3926.75	100.199
3927.82	92.1989
3928.9	99.5326
3929.97	93.5329
3931.04	103.533
3932.11	98.2001
3933.18	94.2004
3934.25	96.8674
3935.33	108.868
3936.4	95.5347
3937.47	99.535
3938.54	97.5353
3939.61	95.5356
3940.68	94.8692
3941.74	96.8695
3942.81	100.203
3943.88	96.8701
3944.95	94.8705
3946.02	94.2041
3947.08	94.2044
3948.15	100.205
3949.22	97.5383
3950.29	108.205
3951.35	94.8723
3952.42	96.2059
3953.48	90.8729
3954.55	90.2065
3955.61	99.5402
3956.68	94.8738
3957.74	101.541
3958.81	98.2077
3959.87	95.5414
3960.93	88.2084
3962	91.542
3963.06	90.8756
3964.12	92.2093
3965.19	96.8762
3966.25	101.543
3967.31	92.2102
3968.37	97.5438
3969.43	94.2108
3970.49	91.5444
3971.55	88.8781
3972.61	92.2117
3973.67	92.212
3974.73	95.5456
3975.79	92.8793
3976.85	90.2129
3977.91	97.5466
3978.97	90.8802
3980.03	94.8805
3981.08	96.2141
3982.14	92.8811
3983.2	101.548
3984.25	84.8817
3985.31	92.882
3986.37	88.8823
3987.42	94.216
3988.48	91.5496
3989.53	83.5499
3990.59	98.2169
3991.64	90.2172
3992.7	89.5508
3993.75	87.5511
3994.81	94.2181
3995.86	88.8851
3996.91	86.8854
3997.97	92.219
3999.02	92.886
