#Acq. time (s)=	10
#Accumulations=	10
#Range (cm-¹)=	60...1900
#Windows=	1
#Auto scanning=	Off
#Autofocus=	Off
#AutoExposure=	Off
#Spike filter=	Multiple accum.
#Delay time (s)=	0
#Binning=	1
#Readout mode=	Signal
#DeNoise=	Off
#ICS correction=	Off
#Dark correction=	Off
#Inst. Process=	Off
#Detector Gain=	Best Dynamic Range
#Detector ADC=	45 kHz       
#Detector temperature (°C)=	-60.1
#Instrument=	XploRA Plus
#Detector=	Syncerity OE
#Objective=	x50_VIS_LWD
#Grating=	1200 (750nm)
#Filter=	50%
#Laser=	532nm_Edge
#Slit (µm)=	100 
#Hole (µm)=	300 
#Temperature=	0
#StageXY=	75x50mm Scan+
#StageZ=	Z motor
#X (µm)=	0
#Y (µm)=	0
#Z (µm)=	0
#Full time(mm:ss)=	1:46
#Project=	
#Sample=	
#Site=	
#Title=	corundum_11_39_29_2026_04_01_10_10 s_532nm_Edge_1200 (750nm)_x50_VIS_LWD_100 µm_300 µm_50%
#Remark=	
#Date=	01.04.2026 11:39
#Acquired=	01.04.2026 11:39:44
#AxisType[0]=Intens
#AxisUnit[0]=Cnt
#AxisType[1]=Spectr
#AxisUnit[1]=1/cm
60.5661	2503
63.8185	2481.44
67.0676	2437
70.3177	2424.78
73.5646	2409.44
76.8103	2466.11
80.057	2363
83.3005	2442.33
86.5428	2377.67
89.784	2302.11
93.0241	2391.89
96.2631	2348.78
99.5031	2327
102.74	2248.11
105.975	2242.33
109.208	2299.22
112.441	2238.33
115.673	2246.56
118.905	2223
122.135	2208.56
125.363	2245.44
128.591	2213.89
131.816	2223.22
135.041	2189.44
138.266	2189.44
141.487	2241.22
144.709	2206.33
147.928	2261.22
151.148	2249.44
154.365	2264.33
157.583	2287.67
160.797	2339.89
164.011	2326.78
167.225	2356.78
170.436	2427
173.646	2452.11
176.855	2491.44
180.063	2525.22
183.272	2547.67
186.478	2536.78
189.682	2536.56
192.886	2529.22
196.088	2519.44
199.287	2489.44
202.488	2471.22
205.687	2461.67
208.885	2462.33
212.081	2456.33
215.277	2457.44
218.47	2443
221.663	2461.44
224.854	2458.56
228.045	2468.33
231.235	2486.78
234.422	2499.22
237.611	2532.56
240.795	2574.11
243.979	2596.33
247.164	2610.33
250.346	2622.78
253.526	2642.11
256.706	2627.67
259.886	2616.56
263.063	2589.22
266.239	2567.22
269.415	2514.33
272.589	2495.67
275.761	2474.78
278.933	2406.33
282.104	2443.44
285.274	2424.11
288.44	2399
291.608	2373.67
294.774	2361.22
297.937	2337.89
301.101	2295.67
304.265	2287.44
307.425	2293.44
310.586	2303.67
313.743	2324.33
316.902	2282.78
320.058	2288.11
323.214	2296.33
326.368	2283.44
329.52	2282.11
332.672	2295
335.824	2310.33
338.973	2316.56
342.121	2325
345.268	2356.11
348.414	2368.33
351.559	2397
354.703	2379.44
357.846	2409.44
360.986	2437
364.126	2470.33
367.266	2553.67
370.404	2606.78
373.54	2745.44
376.676	3538.78
379.811	5306.56
382.943	5088.33
386.076	4343.22
389.206	3769.22
392.337	2903.44
395.465	2742.33
398.592	2712.11
401.72	2719
404.845	2783.89
407.968	2851.44
411.091	3013.67
414.212	3798.56
417.333	7098.56
420.452	7875.44
423.571	6442.11
426.688	5605.22
429.804	4472.11
432.919	4182.33
436.033	3816.11
439.146	3506.11
442.256	3094.78
445.367	2876.11
448.477	3012.33
451.584	3100.11
454.692	3009.67
457.796	2929
460.902	2843
464.005	2816.11
467.106	2813.22
470.209	2827.44
473.308	2873
476.407	2871.67
479.504	2881.22
482.6	2884.78
485.695	2841.22
488.79	2824.78
491.883	2787.22
494.975	2775.44
498.066	2788.33
501.156	2788.56
504.245	2755.44
507.333	2767.67
510.418	2775.67
513.503	2782.33
516.588	2769.89
519.67	2771.44
522.753	2755.44
525.832	2770.56
528.911	2793.89
531.991	2802.33
535.067	2826.33
538.143	2833
541.219	2808.78
544.292	2833.22
547.365	2823.67
550.436	2809.67
553.507	2795.44
556.576	2755.22
559.644	2790.11
562.711	2790.33
565.778	2756.11
568.843	2779
571.905	2850.56
574.968	3114.78
578.03	3530.11
581.089	3426.78
584.149	3221.89
587.206	3032.11
590.264	2835.22
593.319	2768.56
596.373	2733
599.428	2723.22
602.479	2733
605.53	2741.44
608.58	2750.11
611.629	2784.56
614.679	2768.11
617.725	2779.22
620.769	2776.56
623.814	2812.33
626.857	2832.11
629.9	2827.67
632.942	2860.56
635.982	2919.89
639.02	2956.56
642.058	3140.11
645.094	3356.78
648.13	3413.44
651.164	3361.44
654.198	3261.44
657.23	3145.67
660.26	3084.78
663.292	3071
666.32	3072.78
669.348	3122.33
672.374	3097.22
675.4	3103.44
678.424	3088.33
681.447	3121.89
684.47	3094.56
687.491	3061.67
690.51	3055
693.529	3055.67
696.547	3107
699.565	3119.22
702.579	3161.22
705.594	3204.56
708.607	3241
711.62	3267.67
714.63	3227.67
717.64	3185.67
720.648	3158.33
723.657	3147.89
726.664	3142.33
729.669	3169.67
732.673	3203
735.677	3255
738.679	3387.44
741.68	3574.33
744.681	3822.78
747.678	4268.11
750.676	4664.11
753.674	4736.56
756.668	4554.56
759.663	4248.56
762.658	3860.11
765.649	3630.78
768.64	3493.44
771.631	3430.78
774.619	3354.33
777.607	3351.22
780.593	3336.56
783.581	3321
786.565	3308.33
789.549	3302.11
792.531	3319.89
795.513	3315
798.491	3305.44
801.471	3305.67
804.449	3337.89
807.427	3311.22
810.401	3317.44
813.377	3344.56
816.349	3343.22
819.323	3360.33
822.294	3358.56
825.265	3379.44
828.234	3349.67
831.202	3342.78
834.168	3389
837.136	3398.11
840.101	3371.89
843.065	3382.11
846.028	3355.67
848.989	3404.56
851.948	3404.33
854.908	3405.22
857.867	3414.11
860.825	3430.33
863.78	3416.56
866.736	3426.78
869.689	3464.78
872.643	3466.56
875.594	3475.44
878.546	3486.33
881.495	3482.33
884.443	3495.89
887.391	3494.33
890.337	3536.56
893.284	3531.89
896.228	3550.11
899.17	3595.44
902.112	3576.11
905.054	3605.67
907.994	3616.78
910.934	3587
913.87	3618.56
916.808	3638.56
919.742	3610.33
922.678	3634.78
925.611	3642.78
928.544	3676.78
931.475	3705.44
934.405	3680.78
937.334	3714.78
940.263	3703.44
943.19	3709.67
946.116	3708.11
949.041	3742.56
951.964	3771.44
954.887	3758.11
957.809	3761.44
960.73	3807.89
963.648	3771.44
966.567	3821
969.486	3862.78
972.401	3851
975.316	3887.44
978.231	3903
981.144	3888.56
984.055	3912.11
986.966	3948.11
989.878	3955.89
992.786	3973
995.694	4003.67
998.599	4003.67
1001.5	4045
1004.41	4064.78
1007.31	4105.44
1010.22	4095
1013.12	4104.33
1016.02	4148.11
1018.92	4151
1021.82	4159
1024.71	4172.56
1027.61	4202.33
1030.5	4239.89
1033.4	4231.67
1036.29	4272.78
1039.18	4287.89
1042.07	4286.11
1044.96	4308.11
1047.85	4356.78
1050.74	4353.67
1053.62	4385.22
1056.51	4365.89
1059.4	4412.33
1062.28	4452.78
1065.16	4487.67
1068.04	4490.33
1070.92	4530.56
1073.8	4574.78
1076.68	4548.78
1079.56	4578.33
1082.43	4588.56
1085.31	4619.67
1088.18	4630.33
1091.05	4696.78
1093.92	4710.11
1096.8	4718.78
1099.67	4748.56
1102.54	4768.78
1105.4	4811.89
1108.27	4855
1111.13	4831
1114	4869.44
1116.86	4877.67
1119.72	4939.67
1122.59	4945.89
1125.45	4925.22
1128.3	4971.44
1131.16	4999.89
1134.02	5047
1136.88	5038.11
1139.73	5063.44
1142.58	5108.11
1145.44	5109.67
1148.29	5137
1151.14	5150.33
1153.99	5171.89
1156.84	5197.44
1159.69	5240.56
1162.53	5250.33
1165.38	5337.67
1168.22	5315.89
1171.07	5393.44
1173.91	5427.44
1176.75	5455.44
1179.59	5456.78
1182.43	5512.33
1185.27	5548.11
1188.1	5597.89
1190.94	5598.33
1193.78	5621.44
1196.61	5732.56
1199.44	5773
1202.28	5777.89
1205.11	5833.22
1207.94	5879.67
1210.76	5894.11
1213.59	5933.22
1216.42	5994.11
1219.25	5986.33
1222.07	6048.56
1224.89	6058.56
1227.72	6085.22
1230.54	6146.11
1233.36	6191.67
1236.18	6189.89
1239	6234.56
1241.81	6226.11
1244.63	6287.22
1247.45	6336.33
1250.26	6351
1253.07	6350.33
1255.89	6411.67
1258.7	6473.44
1261.51	6488.78
1264.32	6507
1267.12	6577
1269.93	6608.33
1272.74	6673
1275.54	6742.33
1278.35	6777.22
1281.15	6797.89
1283.95	6864.78
1286.75	6905.22
1289.55	6961
1292.35	7009.22
1295.15	7042.78
1297.95	7115.89
1300.74	7165.67
1303.54	7261.44
1306.33	7285.22
1309.12	7359.22
1311.92	7406.11
1314.71	7476.56
1317.5	7517
1320.29	7589.89
1323.07	7616.11
1325.86	7675.44
1328.65	7766.78
1331.43	7777.89
1334.21	7806.11
1337	7871.44
1339.78	7881.67
1342.56	7969.44
1345.34	8027
1348.12	8086.56
1350.9	8140.11
1353.67	8195.44
1356.45	8197.45
1359.22	8257
1362	8328.56
1364.77	8375.89
1367.54	8439
1370.31	8511
1373.08	8540.33
1375.85	8569.22
1378.61	8687.22
1381.38	8695.89
1384.15	8823.89
1386.91	8850.33
1389.67	8901.67
1392.44	8951.67
1395.2	9064.33
1397.96	9120.33
1400.72	9225.22
1403.48	9258.78
1406.23	9303
1408.99	9432.11
1411.75	9469.67
1414.5	9587.44
1417.25	9672.78
1420.01	9726.78
1422.76	9827
1425.51	9893.22
1428.26	9971.22
1431	10049.7
1433.75	10146.3
1436.5	10218.3
1439.24	10272.8
1441.99	10381.2
1444.73	10427
1447.47	10477.4
1450.21	10525.4
1452.95	10604.8
1455.69	10651
1458.43	10752.1
1461.17	10813
1463.9	10968.1
1466.64	10964.3
1469.37	11115
1472.11	11129.9
1474.84	11260.1
1477.57	11241.7
1480.3	11389
1483.03	11456.6
1485.76	11556.3
1488.48	11665.2
1491.21	11815.2
1493.94	11872.1
1496.66	11931.2
1499.38	12091
1502.11	12165.7
1504.83	12267.2
1507.55	12393.2
1510.27	12505.2
1512.99	12551.4
1515.7	12653.2
1518.42	12801.7
1521.13	12866.1
1523.85	13000.6
1526.56	13122.6
1529.27	13234.6
1531.98	13310.3
1534.7	13435.9
1537.4	13520.1
1540.11	13644.8
1542.82	13776.6
1545.53	13880.6
1548.23	14013.7
1550.94	14093.2
1553.64	14168.8
1556.34	14275.4
1559.04	14407.2
1561.74	14487.2
1564.44	14575.9
1567.14	14716.8
1569.84	14765
1572.53	14859.4
1575.23	14963
1577.92	15115.4
1580.62	15189.9
1583.31	15319.2
1586	15467.4
1588.69	15583
1591.38	15608.6
1594.07	15771.2
1596.76	15894.8
1599.45	16015.2
1602.13	16192.1
1604.81	16272.1
1607.5	16397.9
1610.18	16610.6
1612.86	16690.6
1615.54	16896.1
1618.22	17049
1620.9	17163.7
1623.58	17365.2
1626.26	17502.3
1628.93	17654.1
1631.61	17800.3
1634.28	17940.1
1636.96	18143.2
1639.63	18410.6
1642.3	18467.2
1644.97	18564.6
1647.64	18775.9
1650.3	18925
1652.97	19115.9
1655.64	19310.6
1658.3	19416.8
1660.97	19567.7
1663.63	19701
1666.29	19836.6
1668.95	20003
1671.61	20115
1674.27	20228.3
1676.93	20476.1
1679.59	20598.1
1682.24	20780.3
1684.9	20885.7
1687.55	21125
1690.21	21166.1
1692.86	21299
1695.51	21509
1698.16	21693.4
1700.81	21821.9
1703.46	22017.9
1706.11	22169.9
1708.75	22280.3
1711.4	22495
1714.04	22635.9
1716.69	22883.2
1719.33	23013.2
1721.97	23140.6
1724.61	23248.1
1727.25	23537.7
1729.89	23772.1
1732.53	23925.2
1735.17	24189.4
1737.8	24387.4
1740.44	24619.7
1743.07	24835.7
1745.71	25013.7
1748.34	25274.8
1750.97	25457.7
1753.6	25699.9
1756.23	25927.9
1758.86	26070.3
1761.48	26368.3
1764.11	26574.1
1766.74	26845
1769.36	26956.6
1771.98	27235.9
1774.61	27442.6
1777.23	27595.4
1779.85	27785
1782.47	27991.7
1785.09	28269.9
1787.71	28524.1
1790.32	28749
1792.94	28889.4
1795.55	29138.6
1798.17	29341.4
1800.78	29637.9
1803.39	29758.3
1806	30017
1808.61	30175.2
1811.22	30513.2
1813.83	30655
1816.44	30981.7
1819.04	31106.3
1821.65	31384.8
1824.25	31575.4
1826.86	31845.2
1829.46	32038.6
1832.06	32355
1834.66	32621.7
1837.26	32897.2
1839.86	33236.6
1842.46	33454.8
1845.06	33758.8
1847.65	34083.9
1850.25	34440.6
1852.84	34660.8
1855.43	35006.1
1858.02	35282.6
1860.62	35632.1
1863.21	35886.1
1865.8	36139
1868.38	36443.9
1870.97	36870.8
1873.56	37081
1876.14	37376.8
1878.73	37781.4
1881.31	37939
1883.9	38342.3
1886.48	38609
1889.06	38933
1891.64	39438.6
1894.22	39473.7
1896.79	39773.2
1899.37	40099.9
