#Acq. time (s)=	15
#Accumulations=	4
#Range (cm-¹)=	60...4000
#Windows=	2
#Auto scanning=	Off
#Autofocus=	Off
#AutoExposure=	Off
#Spike filter=	Multiple accum.
#Delay time (s)=	0
#Binning=	1
#Readout mode=	Signal
#DeNoise=	Off
#ICS correction=	Off
#Dark correction=	Off
#Inst. Process=	Off
#Detector Gain=	Best Dynamic Range
#Detector ADC=	45 kHz       
#Detector temperature (°C)=	-60.1
#Instrument=	XploRA Plus
#Detector=	Syncerity OE
#Objective=	x50_VIS_LWD
#Grating=	1200 (750nm)
#Filter=	50%
#Laser=	532nm_Edge
#Slit (µm)=	100 
#Hole (µm)=	300 
#Temperature=	0
#StageXY=	75x50mm Scan+
#StageZ=	Z motor
#X (µm)=	0
#Y (µm)=	0
#Z (µm)=	-40.2
#Full time(mm:ss)=	2:10
#Project=	
#Sample=	
#Site=	
#Title=	cubic_zirconia_17_13_40_2026_04_01_4_15 s_532nm_Edge_1200 (750nm)_x50_VIS_LWD_100 µm_300 µm_50%
#Remark=	
#Date=	01.04.2026 17:14
#Acquired=	01.04.2026 17:14:00
#AxisType[0]=Intens
#AxisUnit[0]=Cnt
#AxisType[1]=Spectr
#AxisUnit[1]=1/cm
62.8738	2785.67
66.1253	2913
69.3736	3068.33
72.6208	2997.67
75.869	2980.33
79.1139	2873.67
82.3577	2907
85.6003	2813
88.844	2802.33
92.0844	2885.67
95.3237	2890.33
98.5619	2831.67
101.799	2812.33
105.035	2846.33
108.27	2885.67
111.503	2824.33
114.736	2893.67
117.967	2916.33
121.196	2921.67
124.425	2941
127.653	2933.67
130.88	2821
134.104	2952.33
137.328	3071.67
140.552	3265.67
143.773	3399
146.994	3118.33
150.212	2779
153.431	2560.33
156.647	2392.33
159.862	2351.67
163.078	2365
166.291	2341.67
169.502	2288.33
172.713	2324.33
175.924	2315
179.132	2289.67
182.339	2372.33
185.545	2422.33
188.75	2416.33
191.954	2351
195.157	2366.33
198.358	2269.67
201.559	2253
204.758	2218.33
207.954	2176.33
211.152	2126.33
214.348	2047.67
217.543	2011.67
220.734	1983.67
223.927	1979.67
227.117	1985
230.307	1966.33
233.495	1963.67
236.683	1967.67
239.868	1947
243.055	1903.67
246.238	1842.33
249.42	1831
252.603	1795.67
255.782	1703.67
258.961	1659.67
262.139	1636.33
265.315	1639
268.49	1639
271.665	1658.33
274.838	1743
278.01	1786.33
281.181	1992.33
284.351	2494.33
287.52	3223.67
290.688	3007
293.852	2617.67
297.018	2345.67
300.183	2157.67
303.344	2095.67
306.506	2220.33
309.665	2449
312.826	3118.33
315.983	4219.67
319.141	5199
322.296	5404.33
325.45	4123
328.604	2999
331.756	2189.67
334.907	1731
338.056	1595.67
341.205	1555
344.352	1551
347.498	1525.67
350.643	1545
353.788	1599.67
356.931	1631
360.073	1631.67
363.214	1623.67
366.353	1604.33
369.49	1619
372.628	1624.33
375.765	1696.33
378.898	1845.67
382.033	1909
385.164	2170.33
388.296	2731.67
391.426	4347
394.556	6292.33
397.683	6417
400.809	5349.67
403.936	4242.33
407.06	3303
410.183	2962.33
413.305	3206.33
416.426	4159.67
419.545	5107
422.664	4958.33
425.781	4048.33
428.898	3229.67
432.013	2616.33
435.128	2470.33
438.239	3143.67
441.351	4459.67
444.463	4729
447.571	3973.67
450.68	3113
453.786	2398.33
456.893	1967
459.997	1789.67
463.102	1668.33
466.204	1583.67
469.305	1541
472.406	1516.33
475.505	1465
478.603	1488.33
481.699	1517
484.795	1491.67
487.889	1482.33
490.983	1466.33
494.075	1413
497.166	1405.67
500.257	1357.67
503.346	1370.33
506.434	1379
509.519	1329
512.606	1370.33
515.691	1375.67
518.773	1425.67
521.856	1513
524.936	1673.67
528.017	1779
531.094	1708.33
534.171	1642.33
537.247	1534.33
540.324	1451.67
543.398	1385
546.47	1336.33
549.542	1304.33
552.613	1301
555.682	1410.33
558.751	1671
561.818	1895
564.885	1965
567.95	1898.33
571.013	1909.67
574.076	2089
577.138	2405.67
580.198	2805
583.258	2975.67
586.315	2854.33
589.374	2613.67
592.429	2265
595.485	2049.67
598.538	1899.67
601.59	1906.33
604.643	1847
607.693	1804.33
610.743	1751
613.791	1707
616.838	1693.67
619.884	1686.33
622.929	1617
625.973	1566.33
629.013	1525.67
632.055	1428.33
635.096	1462.33
638.136	1484.33
641.173	1499.67
644.211	1554.33
647.246	1550.33
650.282	1561.67
653.314	1519.67
656.348	1534.33
659.379	1593.67
662.409	1689.67
665.437	1925
668.465	2229.67
671.494	2768.33
674.52	3844.33
677.544	6487
680.568	11815
683.589	15616.3
686.61	13631.7
689.631	10072.3
692.651	6740.33
695.669	4270.33
698.685	3108.33
701.702	2528.33
704.715	2174.33
707.73	1882.33
710.742	1747
713.754	1611.67
716.764	1525
719.772	1495.67
722.78	1425
725.789	1393.67
728.794	1373
731.799	1365.67
734.802	1356.33
737.805	1375
740.807	1430.33
743.807	1489.67
746.805	1516.33
749.804	1495.67
752.801	1481.67
755.796	1483
758.792	1568.33
761.786	1763.67
764.778	2181.67
767.769	2937
770.76	3343.67
773.749	3071
776.737	2579
779.725	2098.33
782.711	1745
785.696	1570.33
788.68	1416.33
791.662	1382.33
794.644	1369.67
797.625	1325.67
800.605	1316.33
803.582	1313
806.559	1315
809.536	1293.67
812.51	1300.33
815.485	1275
818.457	1271
821.43	1306.33
824.4	1271
827.369	1289.67
830.339	1285.67
833.306	1256.33
836.272	1263
839.237	1259.67
842.201	1244.33
845.164	1261
848.126	1295.67
851.087	1299.67
854.047	1319.67
857.007	1287.67
859.963	1316.33
862.92	1313.67
865.876	1322.33
868.83	1344.33
871.784	1337
874.735	1344.33
877.686	1381.67
880.637	1392.33
883.586	1417
886.533	1446.33
889.48	1469.67
892.425	1517.67
895.37	1545
898.313	1645.67
901.256	1725.67
904.198	1840.33
907.138	1995.67
910.078	2114.33
913.015	2210.33
915.953	2185
918.888	2112.33
921.824	2000.33
924.757	1849
927.691	1701.67
930.622	1624.33
933.552	1543.67
936.481	1493.67
939.411	1475.67
942.338	1443.67
945.264	1368.33
948.19	1377
951.114	1319.67
954.035	1282.33
956.958	1283.67
959.879	1303
962.8	1313.67
965.717	1362.33
968.636	1382.33
971.552	1410.33
974.468	1466.33
977.382	1507
980.295	1571
983.209	1621
986.12	1737
989.03	1821.67
991.939	1991
994.847	2298.33
997.754	2749.67
1000.66	3217.67
1003.57	3602.33
1006.47	3733.67
1009.37	3614.33
1012.27	3290.33
1015.17	2908.33
1018.07	2519.67
1020.97	2129.67
1023.87	1930.33
1026.77	1790.33
1029.66	1721.67
1032.56	1655
1035.45	1583.67
1038.34	1565
1041.23	1537
1044.12	1569.67
1047.01	1546.33
1049.9	1614.33
1052.78	1642.33
1055.67	1851.67
1058.56	2159.67
1061.44	2685
1064.32	3403.67
1067.2	3955.69
1070.08	3973.04
1072.96	3550.39
1075.84	3026.41
1078.72	2513.09
1081.6	2172.45
1084.47	1910.47
1087.35	1768.49
1090.22	1627.84
1093.09	1519.86
1095.96	1445.88
1098.83	1337.89
1101.7	1295.91
1104.57	1243.93
1107.43	1229.95
1110.3	1212.64
1113.16	1191.99
1116.03	1192.68
1118.89	1160.69
1121.75	1134.05
1124.61	1154.07
1127.47	1148.75
1130.33	1122.77
1133.19	1113.46
1136.04	1088.81
1138.9	1097.49
1141.75	1049.51
1144.61	1051.53
1147.46	1054.22
1150.31	1040.24
1153.16	1021.59
1156.01	1020.94
1158.86	1028.96
1161.7	1024.98
1164.55	1027
1167.39	1067.68
1170.24	1084.37
1173.08	1049.72
1175.92	1085.07
1178.76	1119.09
1181.6	1140.45
1184.44	1151.13
1187.28	1180.48
1190.12	1179.84
1192.95	1206.52
1195.79	1199.21
1198.62	1217.23
1201.45	1211.91
1204.28	1238.6
1207.11	1267.95
1209.94	1313.3
1212.77	1383.99
1215.6	1473.34
1218.42	1616.03
1221.25	1850.04
1224.07	2089.4
1226.9	2262.08
1229.72	2339.43
1232.54	2444.12
1235.36	2704.81
1238.18	3311.49
1241	4116.84
1243.81	4448.2
1246.63	3971.55
1249.44	3180.9
1252.26	2460.92
1255.07	1940.94
1257.88	1571.62
1260.69	1419.64
1263.5	1321.66
1266.31	1271.68
1269.12	1221.03
1271.92	1217.05
1274.73	1192.4
1277.53	1149.09
1280.34	1175.11
1283.14	1115.13
1285.94	1153.15
1288.74	1147.17
1291.54	1128.52
1294.34	1158.54
1297.14	1171.22
1299.93	1152.58
1302.73	1129.93
1305.52	1125.95
1308.31	1121.3
1311.11	1106.65
1313.9	1087.34
1316.69	1078.69
1319.48	1094.71
1322.26	1060.06
1325.05	1086.08
1327.84	1082.77
1330.62	1078.12
1333.41	1082.8
1336.19	1091.49
1338.97	1082.84
1341.75	1074.19
1344.53	1103.55
1347.31	1086.9
1350.09	1090.92
1352.87	1080.94
1355.64	1104.29
1358.42	1072.31
1361.19	1088.99
1363.96	1071.01
1366.74	1068.36
1369.51	1067.72
1372.28	1067.07
1375.04	1067.76
1377.81	1071.77
1380.58	1048.46
1383.34	1040.48
1386.11	1029.83
1388.87	1028.52
1391.63	1013.87
1394.4	988.555
1397.16	1026.57
1399.92	1031.26
1402.67	1009.95
1405.43	1004.63
1408.19	1010.65
1410.95	1011.34
1413.7	1022.69
1416.45	1010.71
1419.21	1035.39
1421.96	1041.41
1424.71	1041.43
1427.46	1042.78
1430.21	1058.8
1432.95	1078.82
1435.7	1117.51
1438.45	1136.86
1441.19	1134.21
1443.93	1102.23
1446.68	1082.92
1449.42	1082.93
1452.16	1109.62
1454.9	1086.97
1457.64	1090.32
1460.37	1063.68
1463.11	1060.36
1465.85	1071.71
1468.58	1042.4
1471.31	1047.09
1474.05	1033.77
1476.78	1033.79
1479.51	994.477
1482.24	1021.16
1484.97	1009.85
1487.69	997.2
1490.42	1005.22
1493.15	1011.9
1495.87	981.924
1498.59	1000.61
1501.32	1006.63
1504.04	1011.31
1506.76	1002.67
1509.48	1013.35
1512.2	1020.7
1514.91	986.723
1517.63	997.409
1520.35	1010.09
1523.06	1015.45
1525.77	1018.13
1528.49	1026.82
1531.2	1021.5
1533.91	1020.86
1536.62	1031.54
1539.33	1034.23
1542.04	1052.91
1544.74	1036.27
1547.45	1024.95
1550.15	1049.64
1552.85	1043.66
1555.56	1049.01
1558.26	1059.03
1560.96	1049.05
1563.66	1013.07
1566.36	1043.08
1569.06	1027.1
1571.75	1018.46
1574.45	1023.14
1577.14	1010.49
1579.84	1007.85
1582.53	1014.53
1585.22	1019.22
1587.91	1003.9
1590.6	1025.92
1593.29	1014.61
1595.98	1045.96
1598.67	1040.65
1601.35	1029.33
1604.04	1055.35
1606.72	1046.04
1609.4	1038.72
1612.09	1017.41
1614.77	1020.09
1617.45	1029.44
1620.13	984.797
1622.8	1022.82
1625.48	1009.5
1628.16	1012.19
1630.83	1000.87
1633.51	1014.89
1636.18	1002.24
1638.85	1010.26
1641.52	1006.95
1644.19	1006.3
1646.86	1012.99
1649.53	1017.67
1652.2	1044.36
1654.86	1019.04
1657.53	1017.06
1660.2	1012.42
1662.86	1012.43
1665.52	1008.45
1668.18	1015.14
1670.84	989.158
1673.5	960.51
1676.16	994.529
1678.82	956.548
1681.47	959.234
1684.13	938.586
1686.79	967.939
1689.44	929.291
1692.09	969.977
1694.74	954.662
1697.39	944.681
1700.04	950.034
1702.69	932.052
1705.34	916.072
1707.99	923.424
1710.64	944.776
1713.28	930.128
1715.92	904.147
1718.57	916.833
1721.21	913.519
1723.85	909.538
1726.49	928.89
1729.13	926.242
1731.77	928.261
1734.41	924.947
1737.04	910.299
1739.68	892.985
1742.31	914.337
1744.94	915.023
1747.58	927.709
1750.21	908.394
1752.84	923.747
1755.47	919.766
1758.1	925.118
1760.73	917.137
1763.35	911.823
1765.98	915.175
1768.6	927.194
1771.23	893.213
1773.85	923.898
1776.47	915.251
1779.09	911.936
1781.71	908.622
1784.33	899.308
1786.95	887.327
1789.57	914.679
1792.18	908.698
1794.8	894.717
1797.41	916.736
1800.03	900.088
1802.64	907.441
1805.25	900.126
1807.86	902.145
1810.47	915.498
1813.08	900.85
1815.69	894.202
1818.29	886.888
1820.9	890.24
1823.5	898.259
1826.11	897.611
1828.71	893.63
1831.31	893.649
1833.91	898.335
1836.51	884.354
1839.11	883.04
1841.71	878.392
1844.31	906.411
1846.9	863.097
1849.5	869.782
1852.09	887.801
1854.69	866.487
1857.28	883.173
1859.87	891.858
1862.46	869.211
1865.05	877.23
1867.64	851.249
1870.23	862.601
1872.81	892.62
1875.4	893.306
1877.98	839.325
1880.57	864.01
1883.15	886.029
1885.73	876.715
1888.31	872.067
1890.89	856.086
1893.47	892.772
1896.05	868.791
1898.63	842.143
1901.2	861.495
1903.78	853.514
1906.35	850.867
1908.93	854.219
1911.5	849.571
1914.07	836.257
1916.64	834.276
1919.21	828.962
1921.78	835.647
1924.35	850.333
1926.92	836.352
1929.48	841.704
1932.05	829.057
1934.61	829.742
1937.17	813.095
1939.74	820.447
1942.3	816.466
1944.86	825.818
1947.42	803.171
1949.98	831.856
1952.53	823.875
1955.09	810.561
1957.65	830.58
1960.2	813.266
1962.76	824.618
1965.31	841.303
1967.86	823.322
1970.41	842.675
1972.96	834.027
1975.51	814.046
1978.06	829.398
1980.61	836.084
1983.15	819.436
1985.7	820.789
1988.24	832.808
1990.79	822.827
1993.33	826.179
1995.87	807.531
1998.41	830.217
2000.95	802.903
2003.49	811.588
2006.03	823.607
2008.57	832.96
2011.1	812.312
2013.64	806.997
2016.17	792.35
2018.71	825.702
2021.24	809.054
2023.77	795.073
2026.3	802.426
2028.83	803.778
2031.36	812.464
2033.89	815.149
2036.41	803.168
2038.94	805.854
2041.47	804.54
2043.99	812.559
2046.51	799.244
2049.04	801.263
2051.56	791.949
2054.08	787.301
2056.6	797.32
2059.12	801.339
2061.63	786.692
2064.15	798.044
2066.67	813.396
2069.18	812.749
2071.7	818.101
2074.21	787.453
2076.72	800.139
2079.23	804.825
2081.74	798.177
2084.25	814.196
2086.76	816.881
2089.27	817.567
2091.78	799.586
2094.28	818.272
2096.79	788.291
2099.29	819.643
2101.8	811.662
2104.3	819.681
2106.8	818.367
2109.3	815.719
2111.8	799.071
2114.3	830.424
2116.79	816.443
2119.29	798.462
2121.79	817.147
2124.28	836.5
2126.78	816.519
2129.27	804.538
2131.76	815.89
2134.25	813.242
2136.74	815.928
2139.23	796.613
2141.72	808.633
2144.21	822.651
2146.7	800.67
2149.18	806.023
2151.67	791.375
2154.15	812.727
2156.63	799.413
2159.12	790.099
2161.6	792.784
2164.08	797.47
2166.56	808.822
2169.04	784.841
2171.51	786.194
2173.99	793.546
2176.47	784.898
2178.94	773.584
2181.42	775.603
2183.89	773.622
2186.36	771.641
2188.83	774.327
2191.3	778.346
2193.77	780.365
2196.24	766.383
2198.71	764.402
2201.18	787.755
2203.64	793.774
2206.11	781.793
2208.57	789.812
2211.04	783.164
2213.5	792.516
2215.96	791.202
2218.42	803.221
2220.88	781.907
2223.34	771.926
2225.8	781.945
2228.25	781.964
2230.71	773.983
2233.17	778.002
2235.62	804.687
2238.07	811.373
2240.52	806.725
2242.98	781.411
2245.43	796.763
2247.88	806.782
2250.33	796.135
2252.77	800.82
2255.22	794.173
2257.67	802.192
2260.11	791.544
2262.56	818.229
2265	811.582
2267.44	825.601
2269.89	822.286
2272.33	817.639
2274.77	840.324
2277.21	833.677
2279.65	828.362
2282.08	825.048
2284.52	820.4
2286.96	812.419
2289.39	810.438
2291.82	823.791
2294.26	789.81
2296.69	821.162
2299.12	777.848
2301.55	799.2
2303.98	802.552
2306.41	815.238
2308.83	793.924
2311.26	795.943
2313.69	797.962
2316.11	787.98
2318.54	812.666
2320.96	802.685
2323.38	813.371
2325.8	808.056
2328.22	867.409
2330.65	918.761
2333.06	886.78
2335.48	876.799
2337.9	844.818
2340.31	826.837
2342.73	801.523
2345.14	820.208
2347.56	819.561
2349.97	817.58
2352.38	799.599
2354.79	823.618
2357.2	809.637
2359.61	837.656
2362.02	829.675
2364.43	822.36
2366.83	823.046
2369.24	837.065
2371.64	837.084
2374.05	837.103
2376.45	824.455
2378.85	831.141
2381.26	843.16
2383.65	843.179
2386.06	820.531
2388.45	852.55
2390.85	847.902
2393.25	847.255
2395.64	846.607
2398.04	859.959
2400.43	848.645
2402.83	854.664
2405.22	857.35
2407.61	862.035
2410	864.721
2412.39	851.407
2414.78	874.759
2417.17	873.445
2419.56	889.464
2421.94	877.483
2424.33	878.168
2426.71	876.854
2429.1	869.54
2431.48	882.225
2433.86	875.578
2436.24	873.596
2438.62	890.282
2441	881.634
2443.38	877.653
2445.76	883.672
2448.14	889.025
2450.51	899.044
2452.89	878.396
2455.26	909.082
2457.63	895.101
2460.01	883.786
2462.38	899.805
2464.75	897.158
2467.12	897.843
2469.49	883.196
2471.86	903.881
2474.22	907.234
2476.59	922.586
2478.96	899.272
2481.32	908.624
2483.69	914.643
2486.05	926.662
2488.41	906.681
2490.77	922.033
2493.13	911.385
2495.49	921.404
2497.85	925.423
2500.21	936.109
2502.56	932.795
2504.92	915.48
2507.28	908.833
2509.63	936.185
2511.99	936.204
2514.34	933.556
2516.69	938.242
2519.04	934.928
2521.39	929.613
2523.74	955.632
2526.09	938.985
2528.44	944.337
2530.78	934.356
2533.13	959.708
2535.47	929.727
2537.82	946.413
2540.16	954.432
2542.5	963.784
2544.85	964.47
2547.19	969.822
2549.53	962.508
2551.87	967.86
2554.2	951.212
2556.54	965.898
2558.88	981.917
2561.21	975.936
2563.55	961.853
2565.88	986.871
2568.21	986.81
2570.55	999.323
2572.88	974.105
2575.21	1001.63
2577.54	1027.11
2579.87	988.698
2582.19	987.246
2584.52	1016.37
2586.85	1015.11
2589.17	1019.35
2591.5	1016.95
2593.82	1028.69
2596.15	1019.22
2598.47	1030.03
2600.79	1018.54
2603.11	1038.63
2605.43	1043.43
2607.75	1034.08
2610.07	1023.02
2612.38	1071.95
2614.7	1044.08
2617.01	1045
2619.33	1060.01
2621.64	1057.29
2623.96	1066.14
2626.27	1048.05
2628.58	1066.56
2630.89	1069.41
2633.2	1076.25
2635.51	1079.85
2637.81	1059.87
2640.12	1088.32
2642.43	1087.32
2644.73	1093.71
2647.04	1079.65
2649.34	1083.9
2651.64	1095.14
2653.94	1100.03
2656.25	1097.9
2658.55	1103.11
2660.85	1112.91
2663.14	1097.77
2665.44	1116.21
2667.74	1122.23
2670.03	1122.12
2672.33	1113.38
2674.62	1127.99
2676.92	1137.17
2679.21	1133.7
2681.5	1139.48
2683.79	1144.84
2686.08	1147.87
2688.37	1150.35
2690.66	1161.7
2692.95	1165.22
2695.24	1151.7
2697.52	1159.17
2699.81	1174.82
2702.09	1162.75
2704.37	1171.84
2706.66	1188.23
2708.94	1182.54
2711.22	1193.2
2713.5	1198.36
2715.78	1201.67
2718.06	1211.13
2720.33	1209.51
2722.61	1219.23
2724.89	1228.22
2727.16	1235.71
2729.44	1244.95
2731.71	1248.35
2733.98	1244.91
2736.26	1240.7
2738.53	1243.05
2740.8	1249.11
2743.07	1253.87
2745.33	1263.24
2747.6	1269.72
2749.87	1260.33
2752.14	1259.01
2754.4	1254.16
2756.66	1276.96
2758.93	1298.94
2761.19	1304.67
2763.45	1292.51
2765.72	1301.7
2767.98	1296.97
2770.23	1312.24
2772.49	1309.07
2774.75	1314.29
2777.01	1320.94
2779.26	1350.77
2781.52	1346.82
2783.77	1360.88
2786.03	1369.23
2788.28	1354.22
2790.53	1359.05
2792.78	1387.36
2795.03	1424.62
2797.28	1411.3
2797.45	1409.98
2799.74	1421.25
2802.03	1479.85
2804.32	1480.46
2806.6	1523.73
2808.89	1623.66
2811.17	1752.27
2813.46	2037.54
2815.74	2521.47
2818.02	3176.08
2820.3	3714.01
2822.58	3745.28
2824.86	3258.55
2827.14	2669.82
2829.42	2143.76
2831.7	1784.36
2833.98	1672.97
2836.25	1607.57
2838.53	1600.18
2840.8	1606.78
2843.08	1644.05
2845.35	1679.32
2847.62	1751.92
2849.9	1836.53
2852.17	1855.13
2854.44	1915.73
2856.71	1919
2858.98	1905.61
2861.24	1908.88
2863.51	1881.48
2865.78	1886.08
2868.04	1872.02
2870.31	1883.29
2872.57	1885.23
2874.84	1897.83
2877.1	1942.44
2879.36	1941.71
2881.62	2004.98
2883.89	2063.58
2886.15	2074.85
2888.41	2071.45
2890.66	2076.72
2892.92	2092.66
2895.18	2089.93
2897.44	2128.53
2899.69	2099.14
2901.95	2087.07
2904.2	2093.68
2906.46	2100.28
2908.71	2115.55
2910.96	2070.16
2913.21	2096.09
2915.46	2110.7
2917.71	2115.97
2919.96	2149.9
2922.21	2103.17
2924.46	2132.44
2926.71	2169.05
2928.95	2144.32
2931.2	2116.92
2933.44	2150.19
2935.68	2162.79
2937.93	2166.73
2940.17	2154.67
2942.41	2112.6
2944.65	2112.54
2946.89	2147.15
2949.13	2066.42
2951.37	2083.02
2953.61	2054.96
2955.85	2040.89
2958.09	2078.83
2960.32	2072.1
2962.56	2079.37
2964.79	2039.97
2967.03	2061.91
2969.26	2084.51
2971.49	2050.45
2973.72	2034.39
2975.95	2070.99
2978.18	2061.59
2980.41	2070.2
2982.64	2074.8
2984.87	2031.41
2987.1	2067.34
2989.33	2073.28
2991.55	2035.22
2993.78	2057.15
2996	2034.42
2998.22	2058.36
3000.45	2078.3
3002.67	2090.23
3004.89	2096.17
3007.11	2106.11
3009.33	2166.71
3011.55	2138.65
3013.77	2159.92
3015.99	2123.19
3018.21	2165.13
3020.42	2193.06
3022.64	2135
3024.85	2207.6
3027.07	2177.54
3029.28	2194.81
3031.49	2183.41
3033.71	2242.68
3035.92	2245.29
3038.13	2263.89
3040.34	2259.16
3042.55	2271.1
3044.76	2299.7
3046.97	2300.3
3049.17	2322.24
3051.38	2341.51
3053.58	2359.45
3055.79	2355.39
3058	2426.66
3060.2	2433.93
3062.4	2431.2
3064.6	2442.47
3066.8	2481.74
3069.01	2499.01
3071.21	2505.61
3073.41	2542.21
3075.6	2541.48
3077.8	2554.75
3080	2618.02
3082.2	2635.29
3084.39	2576.56
3086.59	2620.5
3088.78	2629.77
3090.97	2622.38
3093.17	2682.31
3095.36	2706.92
3097.55	2742.19
3099.74	2703.46
3101.93	2734.73
3104.12	2744
3106.31	2779.27
3108.5	2755.2
3110.68	2779.14
3112.87	2804.41
3115.06	2832.35
3117.24	2808.28
3119.43	2870.89
3121.61	2850.82
3123.79	2894.76
3125.98	2953.36
3128.16	2892.64
3130.34	2943.91
3132.52	2939.84
3134.7	2943.78
3136.88	2981.72
3139.05	2968.32
3141.23	3018.92
3143.41	3004.19
3145.58	3019.46
3147.76	3030.07
3149.93	3060
3152.11	3095.27
3154.28	3072.54
3156.45	3074.48
3158.63	3119.08
3160.8	3109.69
3162.97	3110.96
3165.14	3102.9
3167.3	3170.83
3169.47	3211.44
3171.64	3202.71
3173.81	3215.98
3175.97	3226.58
3178.14	3264.52
3180.3	3251.12
3182.47	3298.39
3184.63	3304.33
3186.79	3247.6
3188.95	3322.87
3191.11	3337.47
3193.28	3338.07
3195.43	3378.68
3197.59	3373.95
3199.75	3394.55
3201.91	3376.49
3204.07	3453.76
3206.22	3449.03
3208.38	3452.97
3210.53	3516.24
3212.69	3506.84
3214.84	3534.78
3216.99	3532.05
3219.14	3541.32
3221.3	3589.92
3223.45	3601.86
3225.6	3587.79
3227.75	3589.06
3229.89	3587.67
3232.04	3675.61
3234.19	3728.21
3236.34	3716.15
3238.48	3754.08
3240.62	3708.02
3242.77	3779.96
3244.91	3774.56
3247.06	3825.16
3249.2	3784.43
3251.34	3827.04
3253.48	3862.31
3255.62	3866.24
3257.76	3888.18
3259.9	3904.78
3262.04	3960.05
3264.17	3991.32
3266.31	3985.26
3268.45	3997.2
3270.58	4047.8
3272.72	4019.74
3274.85	4053.01
3276.98	4138.95
3279.12	4148.22
3281.25	4175.49
3283.38	4184.09
3285.51	4188.69
3287.64	4197.3
3289.77	4216.57
3291.89	4267.84
3294.02	4321.11
3296.15	4301.71
3298.28	4284.31
3300.4	4315.59
3302.53	4371.52
3304.65	4386.79
3306.77	4466.73
3308.9	4406
3311.02	4453.27
3313.14	4461.21
3315.26	4461.14
3317.38	4557.08
3319.5	4607.02
3321.62	4587.62
3323.74	4599.56
3325.85	4602.83
3327.97	4610.1
3330.08	4697.37
3332.2	4710.64
3334.31	4695.91
3336.43	4729.85
3338.54	4747.12
3340.65	4842.39
3342.77	4848.99
3344.88	4864.26
3346.99	4874.86
3349.1	4863.47
3351.21	4878.07
3353.31	4870.01
3355.42	4991.94
3357.53	4981.21
3359.63	4999.82
3361.74	5026.42
3363.84	5073.69
3365.95	5076.96
3368.05	5110.9
3370.15	5192.17
3372.26	5193.44
3374.36	5148.71
3376.46	5197.98
3378.56	5212.58
3380.66	5291.85
3382.76	5288.46
3384.85	5274.39
3386.95	5379
3389.05	5388.93
3391.14	5441.54
3393.24	5443.47
3395.33	5459.41
3397.43	5498.01
3399.52	5521.95
3401.61	5559.89
3403.7	5627.16
3405.79	5613.1
3407.89	5665.03
3409.98	5674.3
3412.06	5713.57
3414.15	5717.51
3416.24	5796.78
3418.33	5739.38
3420.41	5843.99
3422.5	5861.92
3424.58	5903.19
3426.67	5918.46
3428.75	5944.4
3430.83	5997
3432.92	6043.61
3435	6052.21
3437.08	6122.15
3439.16	6144.09
3441.24	6198.02
3443.32	6175.96
3445.4	6240.56
3447.47	6323.17
3449.55	6251.1
3451.63	6338.37
3453.7	6310.31
3455.78	6386.25
3457.85	6450.85
3459.92	6400.79
3462	6464.06
3464.07	6548.66
3466.14	6557.93
3468.21	6534.53
3470.28	6654.47
3472.35	6648.41
3474.42	6735.01
3476.49	6774.28
3478.55	6816.22
3480.62	6895.49
3482.69	6866.09
3484.75	6914.03
3486.82	7005.97
3488.88	6997.9
3490.94	7035.17
3493.01	7041.11
3495.07	7103.71
3497.13	7147.65
3499.19	7140.92
3501.25	7196.19
3503.31	7347.46
3505.37	7367.4
3507.43	7304
3509.48	7374.61
3511.54	7417.21
3513.59	7454.48
3515.65	7487.08
3517.7	7608.35
3519.76	7609.62
3521.81	7663.56
3523.86	7698.16
3525.92	7632.77
3527.97	7765.37
3530.02	7809.97
3532.07	7877.91
3534.12	7862.52
3536.16	7919.79
3538.21	7997.06
3540.26	7991.66
3542.31	8111.6
3544.35	8127.53
3546.4	8179.47
3548.44	8262.74
3550.49	8327.34
3552.53	8341.28
3554.57	8425.22
3556.61	8404.49
3558.65	8513.09
3560.69	8577.03
3562.73	8690.96
3564.77	8744.23
3566.81	8815.5
3568.85	8882.78
3570.89	8876.04
3572.92	8909.98
3574.96	9077.92
3576.99	9149.86
3579.03	9149.13
3581.06	9202.4
3583.1	9347
3585.13	9482.27
3587.16	9510.87
3589.19	9561.48
3591.22	9782.08
3593.25	9838.68
3595.28	10072
3597.31	10200.6
3599.34	10470.5
3601.36	10516.4
3603.39	10943.7
3605.42	11516.3
3607.44	12992.2
3609.47	18499.5
3611.49	35742.8
3613.51	42363.4
3615.53	31286.7
3617.56	23394.6
3619.58	16998.5
3621.6	12706.5
3623.62	11481.1
3625.64	11276.3
3627.66	11082.3
3629.67	11006.9
3631.69	10940.8
3633.71	10913.4
3635.72	10957.4
3637.74	11089.3
3639.75	11035.2
3641.77	11123.2
3643.78	11166.4
3645.79	11357
3647.8	11336.3
3649.82	11343.6
3651.83	11287.5
3653.84	11397.5
3655.85	11542.1
3657.85	11602.7
3659.86	11657.3
3661.87	11728.5
3663.88	11903.1
3665.88	11945.1
3667.89	11979.7
3669.89	12119.6
3671.9	12280.2
3673.9	12279.5
3675.9	12330.8
3677.9	12471.4
3679.91	12492
3681.91	12583.9
3683.91	12737.8
3685.91	12752.4
3687.9	12800.4
3689.9	12891
3691.9	13031.6
3693.9	13161.5
3695.89	13167.5
3697.89	13250.1
3699.88	13348.7
3701.88	13424.6
3703.87	13481.2
3705.86	13641.8
3707.86	13705.8
3709.85	13723
3711.84	13870.3
3713.83	14004.2
3715.82	14044.2
3717.81	14157.4
3719.8	14228.7
3721.78	14331.3
3723.77	14361.2
3725.76	14321.2
3727.74	14500.5
3729.73	14509.1
3731.71	14564.3
3733.7	14635.6
3735.68	14606.2
3737.66	14820.8
3739.64	14819.4
3741.62	14857.3
3743.61	14981.9
3745.58	14885.9
3747.56	15030.5
3749.54	15095.8
3751.52	15153
3753.5	15264.3
3755.47	15340.9
3757.45	15346.8
3759.43	15518.8
3761.4	15534
3763.37	15565.3
3765.35	15581.9
3767.32	15716.5
3769.29	15715.1
3771.26	15801.1
3773.24	15837
3775.21	15948.9
3777.17	15931.5
3779.14	16051.5
3781.11	16229.4
3783.08	16252.7
3785.05	16296
3787.01	16489.9
3788.98	16443.2
3790.94	16571.1
3792.91	16748.4
3794.87	16713
3796.83	16906.9
3798.8	16891.5
3800.76	17001.5
3802.72	17138.1
3804.68	17116.7
3806.64	17301.3
3808.6	17262.5
3810.56	17325.8
3812.51	17430.4
3814.47	17494.3
3816.43	17579.6
3818.38	17640.9
3820.34	17765.5
3822.29	17843.4
3824.25	18075.4
3826.2	18027.3
3828.16	18094.6
3830.11	18262.5
3832.06	18341.1
3834.01	18589.7
3835.96	18575.6
3837.91	18757.6
3839.86	18842.9
3841.81	18873.5
3843.75	19122.1
3845.7	19028
3847.65	19284.6
3849.59	19448.5
3851.54	19481.1
3853.48	19623.1
3855.43	19836.4
3857.37	19940.3
3859.31	20108.2
3861.25	20134.8
3863.2	20246.8
3865.14	20424
3867.08	20366.6
3869.01	20413.9
3870.95	20544.5
3872.89	20729.8
3874.83	20804.4
3876.77	20789
3878.7	20957.6
3880.64	21097.5
3882.57	21219.5
3884.51	21196.1
3886.44	21230.7
3888.37	21389.9
3890.31	21467.2
3892.24	21437.2
3894.17	21463.8
3896.1	21693.7
3898.03	21785.6
3899.96	21830.9
3901.89	22033.5
3903.81	22189.4
3905.74	22204
3907.67	22360
3909.59	22567.3
3911.52	22589.9
3913.44	22670.5
3915.37	22762.4
3917.29	22875.7
3919.21	23150.3
3921.14	23298.2
3923.06	23519.5
3924.98	23602.7
3926.9	23654
3928.82	23848.6
3930.74	23997.2
3932.66	24055.8
3934.57	24295.1
3936.49	24402.4
3938.41	24540.3
3940.32	24781.6
3942.24	24840.8
3944.15	25064.1
3946.07	25199.4
3947.98	25362
3949.89	25471.3
3951.8	25686.5
3953.72	25937.8
3955.63	25929.7
3957.54	26175.7
3959.45	26338.3
3961.36	26480.2
3963.26	26551.5
3965.17	26622.1
3967.08	26691.4
3968.98	26938
3970.89	26906.6
3972.79	26957.8
3974.7	27275.8
3976.6	27463
3978.51	27484.3
3980.41	27690.2
3982.31	27689.5
3984.21	27849.5
3986.11	28016.7
3988.01	28071.3
3989.91	28293.3
3991.81	28317.9
3993.71	28436.5
3995.61	28791.1
3997.51	28971.7
3999.4	28908.3
