#Acq. time (s)=	30
#Accumulations=	2
#Range (cm-¹)=	60...4000
#Windows=	2
#Auto scanning=	Off
#Autofocus=	Off
#AutoExposure=	Off
#Spike filter=	Multiple accum.
#Delay time (s)=	0
#Binning=	1
#Readout mode=	Signal
#DeNoise=	Off
#ICS correction=	Off
#Dark correction=	Off
#Inst. Process=	Off
#Detector Gain=	Best Dynamic Range
#Detector ADC=	45 kHz       
#Detector temperature (°C)=	-60.1
#Instrument=	XploRA Plus
#Detector=	Syncerity OE
#Objective=	x50_VIS_LWD
#Grating=	1200 (750nm)
#Filter=	50%
#Laser=	532nm_Edge
#Slit (µm)=	100 
#Hole (µm)=	300 
#Temperature=	0
#StageXY=	75x50mm Scan+
#StageZ=	Z motor
#X (µm)=	0
#Y (µm)=	0
#Z (µm)=	-0.1
#Full time(mm:ss)=	2:13
#Project=	
#Sample=	
#Site=	
#Title=	aqua_15_54_41_2026_04_01_2_30 s_532nm_Edge_1200 (750nm)_x50_VIS_LWD_100 µm_300 µm_50%
#Remark=	
#Date=	01.04.2026 15:55
#Acquired=	01.04.2026 15:55:17
#AxisType[0]=Intens
#AxisUnit[0]=Cnt
#AxisType[1]=Spectr
#AxisUnit[1]=1/cm
62.8738	2905
66.1253	2771
69.3736	2911
72.6208	2921
75.869	3025
79.1139	2549
82.3577	2933
85.6003	2541
88.844	2355
92.0844	2683
95.3237	2403
98.5619	2241
101.799	1991
105.035	2289
108.27	2233
111.503	1855
114.736	1975
117.967	1849
121.196	1883
124.425	1893
127.653	1795
130.88	1725
134.104	1541
137.328	1695
140.552	1667
143.773	1579
146.994	1693
150.212	1997
153.431	4255
156.647	4877
159.862	4583
163.078	3885
166.291	2337
169.502	1869
172.713	1761
175.924	1623
179.132	1503
182.339	1473
185.545	1515
188.75	1679
191.954	1671
195.157	1637
198.358	1661
201.559	1655
204.758	1533
207.954	1503
211.152	1529
214.348	1561
217.543	1587
220.734	1621
223.927	1737
227.117	1911
230.307	2517
233.495	4655
236.683	15961
239.868	32187
243.055	34319
246.238	28985
249.42	16939
252.603	5345
255.782	3505
258.961	3441
262.139	5699
265.315	21261
268.49	35463
271.665	35005
274.838	29413
278.01	15095
281.181	11547
284.351	26567
287.52	34505
290.688	32497
293.852	24497
297.018	10895
300.183	5063
303.344	3647
306.506	3061
309.665	2801
312.826	2665
315.983	2745
319.141	2647
322.296	2519
325.45	2427
328.604	2643
331.756	3445
334.907	3699
338.056	3453
341.205	2959
344.352	2169
347.498	1989
350.643	1991
353.788	1919
356.931	2005
360.073	2069
363.214	2027
366.353	2205
369.49	2649
372.628	3679
375.765	3999
378.898	3655
382.033	2973
385.164	2067
388.296	1745
391.426	1641
394.556	1843
397.683	2447
400.809	4119
403.936	5545
407.06	5643
410.183	4919
413.305	3319
416.426	2189
419.545	1791
422.664	1647
425.781	1575
428.898	1529
432.013	1455
435.128	1469
438.239	1695
441.351	1935
444.463	2027
447.571	2035
450.68	2061
453.786	2447
456.893	3135
459.997	3393
463.102	3183
466.204	2689
469.305	2265
472.406	2245
475.505	2413
478.603	2871
481.699	3427
484.795	3775
487.889	4025
490.983	3863
494.075	3283
497.166	2717
500.257	2117
503.346	1729
506.434	1577
509.519	1603
512.606	1605
515.691	1853
518.773	2365
521.856	2581
524.936	2591
528.017	2339
531.094	1923
534.171	1701
537.247	1673
540.324	1669
543.398	1669
546.47	1953
549.542	2241
552.613	2713
555.682	3807
558.751	5817
561.818	6807
564.885	6827
567.95	5655
571.013	3933
574.076	2681
577.138	2055
580.198	1839
583.258	1709
586.315	1631
589.374	1673
592.429	1647
595.485	1627
598.538	1545
601.59	1543
604.643	1541
607.693	1555
610.743	1617
613.791	1599
616.838	1553
619.884	1557
622.929	1507
625.973	1499
629.013	1497
632.055	1607
635.096	1815
638.136	2185
641.173	2897
644.211	3329
647.246	3397
650.282	2969
653.314	2449
656.348	1947
659.379	1765
662.409	1609
665.437	1559
668.465	1531
671.494	1517
674.52	1573
677.544	1565
680.568	1653
683.589	1727
686.61	1875
689.631	1833
692.651	1705
695.669	1605
698.685	1549
701.702	1487
704.715	1499
707.73	1449
710.742	1467
713.754	1425
716.764	1455
719.772	1449
722.78	1425
725.789	1443
728.794	1417
731.799	1457
734.802	1395
737.805	1419
740.807	1387
743.807	1431
746.805	1411
749.804	1419
752.801	1427
755.796	1409
758.792	1435
761.786	1367
764.778	1409
767.769	1487
770.76	1487
773.749	1561
776.737	1485
779.725	1515
782.711	1489
785.696	1425
788.68	1435
791.662	1423
794.644	1505
797.625	1429
800.605	1457
803.582	1415
806.559	1477
809.536	1505
812.51	1519
815.485	1467
818.457	1485
821.43	1511
824.4	1531
827.369	1549
830.339	1567
833.306	1603
836.272	1653
839.237	1675
842.201	1791
845.164	1935
848.126	2125
851.087	2243
854.047	2453
857.007	2561
859.963	2531
862.92	2375
865.876	2205
868.83	2049
871.784	1985
874.735	1973
877.686	1963
880.637	1939
883.586	1961
886.533	1989
889.48	2065
892.425	2119
895.37	2259
898.313	2387
901.256	2547
904.198	2761
907.138	3145
910.078	3577
913.015	4183
915.953	4981
918.888	6227
921.824	7859
924.757	9631
927.691	11575
930.622	14259
933.552	19273
936.481	23469
939.411	24335
942.338	21385
945.264	15575
948.19	9947
951.114	6863
954.035	5183
956.958	4325
959.879	3941
962.8	3601
965.717	3549
968.636	3745
971.552	4125
974.468	5127
977.382	7085
980.295	10769
983.209	15433
986.12	17789
989.03	16981
991.939	13505
994.847	8981
997.754	5647
1000.66	4079
1003.57	3407
1006.47	3125
1009.37	2955
1012.27	2795
1015.17	2633
1018.07	2337
1020.97	2111
1023.87	2005
1026.77	1885
1029.66	1845
1032.56	1835
1035.45	1783
1038.34	1735
1041.23	1693
1044.12	1703
1047.01	1653
1049.9	1611
1052.78	1589
1055.67	1557
1058.56	1597
1061.44	1583
1064.32	1599
1067.2	1588.34
1070.08	1575.67
1072.96	1567.01
1075.84	1524.34
1078.72	1505.68
1081.6	1533.01
1084.47	1536.35
1087.35	1519.68
1090.22	1511.02
1093.09	1512.35
1095.96	1531.69
1098.83	1479.02
1101.7	1496.36
1104.57	1453.69
1107.43	1499.03
1110.3	1518.36
1113.16	1515.7
1116.03	1509.03
1118.89	1488.37
1121.75	1489.7
1124.61	1503.04
1127.47	1494.37
1130.33	1471.71
1133.19	1545.05
1136.04	1514.38
1138.9	1557.72
1141.75	1535.05
1144.61	1560.39
1147.46	1593.72
1150.31	1615.06
1153.16	1702.39
1156.01	1885.73
1158.86	2077.06
1161.7	2426.4
1164.55	2793.73
1167.39	2877.07
1170.24	2668.4
1173.08	2407.74
1175.92	2111.07
1178.76	1836.41
1181.6	1695.74
1184.44	1589.08
1187.28	1494.41
1190.12	1521.75
1192.95	1469.08
1195.79	1464.42
1198.62	1477.76
1201.45	1485.09
1204.28	1442.43
1207.11	1525.76
1209.94	1459.1
1212.77	1454.43
1215.6	1477.77
1218.42	1413.1
1221.25	1476.44
1224.07	1477.77
1226.9	1451.11
1229.72	1514.44
1232.54	1507.78
1235.36	1437.11
1238.18	1454.45
1241	1481.78
1243.81	1475.12
1246.63	1440.45
1249.44	1485.79
1252.26	1439.12
1255.07	1440.46
1257.88	1457.79
1260.69	1445.13
1263.5	1444.47
1266.31	1409.8
1269.12	1491.14
1271.92	1462.47
1274.73	1457.81
1277.53	1501.14
1280.34	1484.48
1283.14	1519.81
1285.94	1531.15
1288.74	1514.48
1291.54	1585.82
1294.34	1533.15
1297.14	1650.49
1299.93	1589.82
1302.73	1617.16
1305.52	1592.49
1308.31	1621.83
1311.11	1555.16
1313.9	1548.5
1316.69	1583.83
1319.48	1507.17
1322.26	1562.5
1325.05	1565.84
1327.84	1557.18
1330.62	1520.51
1333.41	1467.85
1336.19	1525.18
1338.97	1522.52
1341.75	1509.85
1344.53	1457.19
1347.31	1494.52
1350.09	1487.86
1352.87	1457.19
1355.64	1482.53
1358.42	1481.86
1361.19	1453.2
1363.96	1486.53
1366.74	1445.87
1369.51	1465.2
1372.28	1450.54
1375.04	1447.87
1377.81	1429.21
1380.58	1510.54
1383.34	1459.88
1386.11	1447.21
1388.87	1444.55
1391.63	1437.89
1394.4	1501.22
1397.16	1488.56
1399.92	1491.89
1402.67	1509.23
1405.43	1488.56
1408.19	1475.9
1410.95	1487.23
1413.7	1502.57
1416.45	1507.9
1419.21	1507.24
1421.96	1542.57
1424.71	1507.91
1427.46	1545.24
1430.21	1544.58
1432.95	1543.91
1435.7	1527.25
1438.45	1576.58
1441.19	1627.92
1443.93	1609.25
1446.68	1524.59
1449.42	1541.92
1452.16	1543.26
1454.9	1554.59
1457.64	1497.93
1460.37	1449.27
1463.11	1518.6
1465.85	1453.94
1468.58	1447.27
1471.31	1456.61
1474.05	1437.94
1476.78	1423.28
1479.51	1382.61
1482.24	1441.95
1484.97	1405.28
1487.69	1354.62
1490.42	1413.95
1493.15	1427.29
1495.87	1398.62
1498.59	1405.96
1501.32	1437.29
1504.04	1414.63
1506.76	1425.96
1509.48	1467.3
1512.2	1472.63
1514.91	1399.97
1517.63	1413.3
1520.35	1414.64
1523.06	1447.98
1525.77	1435.31
1528.49	1370.65
1531.2	1433.98
1533.91	1473.32
1536.62	1472.65
1539.33	1425.99
1542.04	1461.32
1544.74	1490.66
1547.45	1451.99
1550.15	1473.33
1552.85	1480.66
1555.56	1580
1558.26	1471.33
1560.96	1524.67
1563.66	1482
1566.36	1463.34
1569.06	1442.67
1571.75	1466.01
1574.45	1415.34
1577.14	1476.68
1579.84	1450.01
1582.53	1459.35
1585.22	1482.69
1587.91	1484.02
1590.6	1421.36
1593.29	1444.69
1595.98	1456.03
1598.67	1469.36
1601.35	1492.7
1604.04	1456.03
1606.72	1457.37
1609.4	1460.7
1612.09	1432.04
1614.77	1477.37
1617.45	1426.71
1620.13	1420.04
1622.8	1415.38
1625.48	1434.71
1628.16	1454.05
1630.83	1437.38
1633.51	1412.72
1636.18	1458.05
1638.85	1435.39
1641.52	1474.72
1644.19	1458.06
1646.86	1463.4
1649.53	1446.73
1652.2	1474.07
1654.86	1473.4
1657.53	1502.74
1660.2	1486.07
1662.86	1461.41
1665.52	1450.74
1668.18	1460.08
1670.84	1445.41
1673.5	1420.75
1676.16	1452.08
1678.82	1401.42
1681.47	1460.75
1684.13	1436.09
1686.79	1383.42
1689.44	1396.76
1692.09	1416.09
1694.74	1413.43
1697.39	1388.76
1700.04	1384.1
1702.69	1399.43
1705.34	1398.77
1707.99	1412.11
1710.64	1381.44
1713.28	1416.78
1715.92	1350.11
1718.57	1359.45
1721.21	1376.78
1723.85	1376.12
1726.49	1383.45
1729.13	1408.79
1731.77	1394.12
1734.41	1333.46
1737.04	1426.79
1739.68	1332.13
1742.31	1361.46
1744.94	1352.8
1747.58	1344.13
1750.21	1373.47
1752.84	1314.8
1755.47	1376.14
1758.1	1385.47
1760.73	1378.81
1763.35	1362.14
1765.98	1353.48
1768.6	1360.82
1771.23	1360.15
1773.85	1355.49
1776.47	1380.82
1779.09	1352.16
1781.71	1375.49
1784.33	1406.83
1786.95	1396.16
1789.57	1351.5
1792.18	1346.83
1794.8	1324.17
1797.41	1363.5
1800.03	1364.84
1802.64	1332.17
1805.25	1379.51
1807.86	1332.84
1810.47	1380.18
1813.08	1331.51
1815.69	1368.85
1818.29	1326.18
1820.9	1349.52
1823.5	1328.85
1826.11	1382.19
1828.71	1361.53
1831.31	1394.86
1833.91	1368.2
1836.51	1339.53
1839.11	1382.87
1841.71	1392.2
1844.31	1397.54
1846.9	1376.87
1849.5	1374.21
1852.09	1361.54
1854.69	1352.88
1857.28	1390.21
1859.87	1335.55
1862.46	1366.88
1865.05	1394.22
1867.64	1343.55
1870.23	1396.89
1872.81	1396.22
1875.4	1405.56
1877.98	1384.89
1880.57	1376.23
1883.15	1419.56
1885.73	1374.9
1888.31	1354.23
1890.89	1385.57
1893.47	1388.91
1896.05	1404.24
1898.63	1383.58
1901.2	1444.91
1903.78	1364.25
1906.35	1375.58
1908.93	1374.92
1911.5	1360.25
1914.07	1421.59
1916.64	1374.92
1919.21	1408.26
1921.78	1373.59
1924.35	1396.93
1926.92	1368.26
1929.48	1363.6
1932.05	1422.93
1934.61	1388.27
1937.17	1331.6
1939.74	1412.94
1942.3	1334.27
1944.86	1421.61
1947.42	1418.95
1949.98	1344.28
1952.53	1381.62
1955.09	1374.95
1957.65	1368.29
1960.2	1375.62
1962.76	1398.96
1965.31	1392.29
1967.86	1431.63
1970.41	1404.96
1972.96	1382.3
1975.51	1437.63
1978.06	1350.97
1980.61	1416.3
1983.15	1461.64
1985.7	1412.97
1988.24	1394.31
1990.79	1427.64
1993.33	1422.98
1995.87	1438.31
1998.41	1407.65
2000.95	1422.98
2003.49	1350.32
2006.03	1389.66
2008.57	1408.99
2011.1	1436.33
2013.64	1379.66
2016.17	1421
2018.71	1412.33
2021.24	1403.67
2023.77	1469
2026.3	1396.34
2028.83	1407.67
2031.36	1407.01
2033.89	1428.34
2036.41	1387.68
2038.94	1407.01
2041.47	1416.35
2043.99	1457.68
2046.51	1435.02
2049.04	1402.35
2051.56	1443.69
2054.08	1409.02
2056.6	1426.36
2059.12	1403.69
2061.63	1381.03
2064.15	1430.36
2066.67	1415.7
2069.18	1385.04
2071.7	1408.37
2074.21	1439.71
2076.72	1401.04
2079.23	1448.38
2081.74	1495.71
2084.25	1453.05
2086.76	1428.38
2089.27	1423.72
2091.78	1399.05
2094.28	1434.39
2096.79	1427.72
2099.29	1435.06
2101.8	1404.39
2104.3	1469.73
2106.8	1461.06
2109.3	1502.4
2111.8	1461.73
2114.3	1453.07
2116.79	1460.4
2119.29	1427.74
2121.79	1451.07
2124.28	1488.41
2126.78	1421.75
2129.27	1437.08
2131.76	1478.42
2134.25	1443.75
2136.74	1467.09
2139.23	1430.42
2141.72	1453.76
2144.21	1457.09
2146.7	1474.43
2149.18	1461.76
2151.67	1497.1
2154.15	1446.43
2156.63	1447.77
2159.12	1423.1
2161.6	1422.44
2164.08	1453.77
2166.56	1445.11
2169.04	1448.44
2171.51	1449.78
2173.99	1433.11
2176.47	1428.45
2178.94	1427.78
2181.42	1419.12
2183.89	1430.46
2186.36	1385.79
2188.83	1469.13
2191.3	1438.46
2193.77	1435.8
2196.24	1441.13
2198.71	1446.47
2201.18	1481.8
2203.64	1445.14
2206.11	1470.47
2208.57	1475.81
2211.04	1441.14
2213.5	1430.48
2215.96	1461.81
2218.42	1469.15
2220.88	1496.48
2223.34	1505.82
2225.8	1521.15
2228.25	1538.49
2230.71	1457.82
2233.17	1469.16
2235.62	1476.49
2238.07	1539.83
2240.52	1501.17
2242.98	1470.5
2245.43	1535.84
2247.88	1533.17
2250.33	1506.51
2252.77	1533.84
2255.22	1549.18
2257.67	1524.51
2260.11	1537.85
2262.56	1563.18
2265	1556.52
2267.44	1549.85
2269.89	1527.19
2272.33	1534.52
2274.77	1513.86
2277.21	1559.19
2279.65	1578.53
2282.08	1559.86
2284.52	1577.2
2286.96	1534.53
2289.39	1547.87
2291.82	1569.2
2294.26	1534.54
2296.69	1517.88
2299.12	1525.21
2301.55	1552.55
2303.98	1539.88
2306.41	1525.22
2308.83	1536.55
2311.26	1609.89
2313.69	1547.22
2316.11	1568.56
2318.54	1533.89
2320.96	1565.23
2323.38	1576.56
2325.8	1673.9
2328.22	1777.23
2330.65	1904.57
2333.06	1763.9
2335.48	1755.24
2337.9	1644.57
2340.31	1581.91
2342.73	1537.24
2345.14	1586.58
2347.56	1561.91
2349.97	1587.25
2352.38	1532.59
2354.79	1575.92
2357.2	1575.26
2359.61	1562.59
2362.02	1627.93
2364.43	1527.26
2366.83	1596.6
2369.24	1517.93
2371.64	1571.27
2374.05	1606.6
2376.45	1605.94
2378.85	1537.27
2381.26	1656.61
2383.65	1615.94
2386.06	1663.28
2388.45	1614.61
2390.85	1597.95
2393.25	1613.28
2395.64	1586.62
2398.04	1655.95
2400.43	1599.29
2402.83	1584.62
2405.22	1619.96
2407.61	1623.3
2410	1612.63
2412.39	1643.97
2414.78	1645.3
2417.17	1624.64
2419.56	1619.97
2421.94	1639.31
2424.33	1658.64
2426.71	1605.98
2429.1	1631.31
2431.48	1684.65
2433.86	1685.98
2436.24	1685.32
2438.62	1618.65
2441	1641.99
2443.38	1673.32
2445.76	1672.66
2448.14	1631.99
2450.51	1641.33
2452.89	1692.66
2455.26	1624
2457.63	1675.33
2460.01	1658.67
2462.38	1648.01
2464.75	1643.34
2467.12	1682.68
2469.49	1612.01
2471.86	1627.35
2474.22	1656.68
2476.59	1628.02
2478.96	1693.35
2481.32	1668.69
2483.69	1638.02
2486.05	1617.36
2488.41	1650.69
2490.77	1618.03
2493.13	1675.36
2495.49	1640.7
2497.85	1646.03
2500.21	1635.37
2502.56	1686.7
2504.92	1624.04
2507.28	1683.37
2509.63	1656.71
2511.99	1668.04
2514.34	1693.38
2516.69	1690.71
2519.04	1712.05
2521.39	1669.39
2523.74	1624.72
2526.09	1684.06
2528.44	1661.39
2530.78	1734.73
2533.13	1652.06
2535.47	1685.4
2537.82	1718.73
2540.16	1698.07
2542.5	1699.4
2544.85	1712.74
2547.19	1662.07
2549.53	1659.41
2551.87	1704.74
2554.2	1680.08
2556.54	1711.41
2558.88	1720.75
2561.21	1720.08
2563.55	1701.48
2565.88	1712.64
2568.21	1690.39
2570.55	1742.46
2572.88	1734.6
2575.21	1698.01
2577.54	1761.73
2579.87	1698.51
2582.19	1725.04
2584.52	1719.83
2586.85	1733.54
2589.17	1733.82
2591.5	1716.99
2593.82	1676.16
2596.15	1756.9
2598.47	1735.69
2600.79	1786.26
2603.11	1767.19
2605.43	1774.71
2607.75	1795.88
2610.07	1715.21
2612.38	1775.34
2614.7	1738.59
2617.01	1746.56
2619.33	1758.61
2621.64	1746.81
2623.96	1744.9
2626.27	1742.5
2628.58	1777.3
2630.89	1767.59
2633.2	1750.83
2635.51	1754.86
2637.81	1744.61
2640.12	1746.38
2642.43	1770.77
2644.73	1786.72
2647.04	1778.06
2649.34	1790.23
2651.64	1785.68
2653.94	1793.17
2656.25	1816.37
2658.55	2442.37
2660.85	1827.38
2663.14	1782.84
2665.44	1796.57
2667.74	1777.31
2670.03	1788.13
2672.33	1788.11
2674.62	1767.58
2676.92	1783.11
2679.21	1838.5
2681.5	1819.94
2683.79	1785.53
2686.08	1827.98
2688.37	1805.52
2690.66	1822.79
2692.95	1803.85
2695.24	1819.49
2697.52	1794.57
2699.81	1795.54
2702.09	1818.92
2704.37	1811.44
2706.66	1820.26
2708.94	1829.62
2711.22	1851.28
2713.5	1846.08
2715.78	1838.65
2718.06	1839.24
2720.33	1862.11
2722.61	1859.88
2724.89	1846.72
2727.16	1869
2729.44	1849.35
2731.71	1862.43
2733.98	1880.08
2736.26	1889.34
2738.53	1881.2
2740.8	1871.14
2743.07	1871.95
2745.33	1865.07
2747.6	1894.67
2749.87	1896.11
2752.14	1872.25
2754.4	1872.36
2756.66	1872.5
2758.93	1862.57
2761.19	1878.18
2763.45	1881.81
2765.72	1884.33
2767.98	1833.99
2770.23	1889.1
2772.49	1871.59
2774.75	1873.44
2777.01	1882.31
2779.26	1870.17
2781.52	1899.8
2783.77	1897.2
2786.03	1928.89
2788.28	1901.25
2790.53	1884.07
2792.78	1893.46
2795.03	1927.29
2797.28	1885.15
2797.45	1880.77
2799.74	1940.43
2802.03	1982.08
2804.32	1899.73
2806.6	1921.39
2808.89	1969.04
2811.17	1934.7
2813.46	1918.35
2815.74	1990
2818.02	2017.66
2820.3	1941.31
2822.58	1910.96
2824.86	1918.62
2827.14	1946.27
2829.42	2045.93
2831.7	1993.58
2833.98	1969.23
2836.25	2006.89
2838.53	2050.54
2840.8	2068.19
2843.08	2087.85
2845.35	2191.5
2847.62	2237.16
2849.9	2350.81
2852.17	2362.46
2854.44	2524.12
2856.71	2563.77
2858.98	2553.42
2861.24	2597.08
2863.51	2458.73
2865.78	2448.39
2868.04	2402.04
2870.31	2481.69
2872.57	2475.35
2874.84	2493
2877.1	2526.65
2879.36	2506.31
2881.62	2555.96
2883.89	2527.62
2886.15	2571.27
2888.41	2578.92
2890.66	2614.58
2892.92	2624.23
2895.18	2623.88
2897.44	2685.54
2899.69	2603.19
2901.95	2658.85
2904.2	2642.5
2906.46	2650.15
2908.71	2599.81
2910.96	2677.46
2913.21	2619.11
2915.46	2682.77
2917.71	2592.42
2919.96	2626.08
2922.21	2679.73
2924.46	2611.38
2926.71	2649.04
2928.95	2578.69
2931.2	2640.35
2933.44	2696
2935.68	2605.65
2937.93	2695.31
2940.17	2614.96
2942.41	2640.61
2944.65	2616.27
2946.89	2591.92
2949.13	2515.58
2951.37	2419.23
2953.61	2492.88
2955.85	2424.54
2958.09	2426.19
2960.32	2379.84
2962.56	2399.5
2964.79	2355.15
2967.03	2364.81
2969.26	2354.46
2971.49	2366.11
2973.72	2373.77
2975.95	2305.42
2978.18	2289.07
2980.41	2312.73
2982.64	2368.38
2984.87	2304.04
2987.1	2353.69
2989.33	2189.34
2991.55	2227
2993.78	2236.65
2996	2150.3
2998.22	2195.96
3000.45	2287.61
3002.67	2205.27
3004.89	2198.92
3007.11	2264.57
3009.33	2244.23
3011.55	2179.88
3013.77	2171.53
3015.99	2255.19
3018.21	2248.84
3020.42	2266.5
3022.64	2190.15
3024.85	2139.8
3027.07	2181.46
3029.28	2185.11
3031.49	2158.76
3033.71	2140.42
3035.92	2130.07
3038.13	2153.73
3040.34	2127.38
3042.55	2193.03
3044.76	2168.69
3046.97	2182.34
3049.17	2142
3051.38	2179.65
3053.58	2179.3
3055.79	2182.96
3058	2178.61
3060.2	2158.26
3062.4	2185.92
3064.6	2137.57
3066.8	2139.23
3069.01	2180.88
3071.21	2148.53
3073.41	2214.19
3075.6	2161.84
3077.8	2235.49
3080	2197.15
3082.2	2150.8
3084.39	2144.46
3086.59	2268.11
3088.78	2263.76
3090.97	2183.42
3093.17	2213.07
3095.36	2202.72
3097.55	2234.38
3099.74	2196.03
3101.93	2221.69
3104.12	2191.34
3106.31	2170.99
3108.5	2202.65
3110.68	2186.3
3112.87	2203.95
3115.06	2257.61
3117.24	2247.26
3119.43	2186.92
3121.61	2254.57
3123.79	2224.22
3125.98	2275.88
3128.16	2209.53
3130.34	2227.18
3132.52	2220.84
3134.7	2210.49
3136.88	2222.15
3139.05	2187.8
3141.23	2223.45
3143.41	2241.11
3145.58	2290.76
3147.76	2222.42
3149.93	2226.07
3152.11	2249.72
3154.28	2199.38
3156.45	2215.03
3158.63	2220.68
3160.8	2294.34
3162.97	2311.99
3165.14	2253.65
3167.3	2259.3
3169.47	2278.95
3171.64	2302.61
3173.81	2266.26
3175.97	2269.91
3178.14	2241.57
3180.3	2263.22
3182.47	2258.88
3184.63	2318.53
3186.79	2286.18
3188.95	2237.84
3191.11	2279.49
3193.28	2273.14
3195.43	2298.8
3197.59	2270.45
3199.75	2324.11
3201.91	2323.76
3204.07	2307.41
3206.22	2223.07
3208.38	2248.72
3210.53	2230.37
3212.69	2346.03
3214.84	2323.68
3216.99	2265.34
3219.14	2248.99
3221.3	2264.64
3223.45	2270.3
3225.6	2313.95
3227.75	2331.6
3229.89	2333.26
3232.04	2294.91
3234.19	2310.57
3236.34	2298.22
3238.48	2297.87
3240.62	2319.53
3242.77	2317.18
3244.91	2318.83
3247.06	2326.49
3249.2	2314.14
3251.34	2299.8
3253.48	2329.45
3255.62	2317.1
3257.76	2350.76
3259.9	2320.41
3262.04	2396.06
3264.17	2367.72
3266.31	2359.37
3268.45	2345.03
3270.58	2418.68
3272.72	2374.33
3274.85	2369.99
3276.98	2341.64
3279.12	2355.3
3281.25	2424.95
3283.38	2300.6
3285.51	2352.26
3287.64	2373.91
3289.77	2409.56
3291.89	2419.22
3294.02	2358.87
3296.15	2326.53
3298.28	2430.18
3300.4	2465.83
3302.53	2411.49
3304.65	2403.14
3306.77	2360.79
3308.9	2390.45
3311.02	2414.1
3313.14	2381.76
3315.26	2407.41
3317.38	2369.06
3319.5	2376.72
3321.62	2378.37
3323.74	2436.02
3325.85	2423.68
3327.97	2445.33
3330.08	2432.99
3332.2	2420.64
3334.31	2394.29
3336.43	2425.95
3338.54	2421.6
3340.65	2425.25
3342.77	2394.91
3344.88	2406.56
3346.99	2392.22
3349.1	2445.87
3351.21	2473.52
3353.31	2419.18
3355.42	2456.83
3357.53	2392.48
3359.63	2410.14
3361.74	2463.79
3363.84	2393.45
3365.95	2449.1
3368.05	2422.75
3370.15	2434.41
3372.26	2474.06
3374.36	2413.72
3376.46	2443.37
3378.56	2469.02
3380.66	2496.68
3382.76	2472.33
3384.85	2429.98
3386.95	2415.64
3389.05	2467.29
3391.14	2486.95
3393.24	2388.6
3395.33	2526.25
3397.43	2497.91
3399.52	2493.56
3401.61	2477.21
3403.7	2442.87
3405.79	2438.52
3407.89	2434.18
3409.98	2433.83
3412.06	2517.48
3414.15	2497.14
3416.24	2442.79
3418.33	2456.44
3420.41	2470.1
3422.5	2555.75
3424.58	2495.41
3426.67	2465.06
3428.75	2448.71
3430.83	2504.37
3432.92	2458.02
3435	2497.67
3437.08	2559.33
3439.16	2518.98
3441.24	2526.64
3443.32	2534.29
3445.4	2497.94
3447.47	2541.6
3449.55	2521.25
3451.63	2546.9
3453.7	2522.56
3455.78	2560.21
3457.85	2521.87
3459.92	2507.52
3462	2469.17
3464.07	2486.83
3466.14	2490.48
3468.21	2466.13
3470.28	2533.79
3472.35	2553.44
3474.42	2527.1
3476.49	2540.75
3478.55	2546.4
3480.62	2520.06
3482.69	2529.71
3484.75	2551.36
3486.82	2591.02
3488.88	2506.67
3490.94	2488.33
3493.01	2521.98
3495.07	2531.63
3497.13	2575.29
3499.19	2614.94
3501.25	2588.6
3503.31	2560.25
3505.37	2555.9
3507.43	2623.56
3509.48	2551.21
3511.54	2492.86
3513.59	2574.52
3515.65	2530.17
3517.7	2539.83
3519.76	2541.48
3521.81	2563.13
3523.86	2534.79
3525.92	2604.44
3527.97	2520.09
3530.02	2591.75
3532.07	2583.4
3534.12	2509.06
3536.16	2494.71
3538.21	2570.36
3540.26	2648.02
3542.31	2601.67
3544.35	2589.32
3546.4	2600.98
3548.44	2544.63
3550.49	2578.29
3552.53	2609.94
3554.57	2559.59
3556.61	2629.25
3558.65	2566.9
3560.69	2570.55
3562.73	2580.21
3564.77	2601.86
3566.81	2541.52
3568.85	2601.17
3570.89	2542.82
3572.92	2638.48
3574.96	2576.13
3576.99	2603.78
3579.03	2585.44
3581.06	2625.09
3583.1	2600.75
3585.13	2696.4
3587.16	2650.05
3589.19	2563.71
3591.22	2569.36
3593.25	2705.02
3595.28	2558.67
3597.31	2634.32
3599.34	2657.98
3601.36	2649.63
3603.39	2611.28
3605.42	2666.94
3607.44	2720.59
3609.47	2604.25
3611.49	2701.9
3613.51	2625.55
3615.53	2641.21
3617.56	2700.86
3619.58	2720.51
3621.6	2730.17
3623.62	2751.82
3625.64	2873.48
3627.66	2815.13
3629.67	2846.78
3631.69	2908.44
3633.71	3016.09
3635.72	3231.74
3637.74	3427.4
3639.75	3977.05
3641.77	4730.71
3643.78	5428.36
3645.79	6310.01
3647.8	7825.67
3649.82	10459.3
3651.83	15541
3653.84	23810.6
3655.85	29870.3
3657.85	29503.9
3659.86	24021.6
3661.87	16513.2
3663.88	9736.9
3665.88	6038.55
3667.89	4422.2
3669.89	3695.86
3671.9	3317.51
3673.9	3143.17
3675.9	2940.82
3677.9	2964.47
3679.91	2926.13
3681.91	2875.78
3683.91	2857.43
3685.91	2749.09
3687.9	2752.74
3689.9	2690.4
3691.9	2730.05
3693.9	2833.7
3695.89	2725.36
3697.89	2725.01
3699.88	2732.67
3701.88	2710.32
3703.87	2671.97
3705.86	2695.63
3707.86	2709.28
3709.85	2716.93
3711.84	2790.59
3713.83	2682.24
3715.82	2735.9
3717.81	2701.55
3719.8	2701.2
3721.78	2774.86
3723.77	2714.51
3725.76	2792.16
3727.74	2739.82
3729.73	2785.47
3731.71	2739.13
3733.7	2726.78
3735.68	2660.43
3737.66	2734.09
3739.64	2753.74
3741.62	2701.39
3743.61	2735.05
3745.58	2676.7
3747.56	2676.36
3749.54	2688.01
3751.52	2651.66
3753.5	2673.32
3755.47	2674.97
3757.45	2662.62
3759.43	2728.28
3761.4	2675.93
3763.37	2701.59
3765.35	2633.24
3767.32	2674.89
3769.29	2632.55
3771.26	2698.2
3773.24	2681.85
3775.21	2687.51
3777.17	2641.16
3779.14	2570.82
3781.11	2664.47
3783.08	2664.12
3785.05	2623.78
3787.01	2733.43
3788.98	2689.08
3790.94	2710.74
3792.91	2614.39
3794.87	2698.05
3796.83	2633.7
3798.8	2641.35
3800.76	2665.01
3802.72	2714.66
3804.68	2638.31
3806.64	2719.97
3808.6	2627.62
3810.56	2651.28
3812.51	2674.93
3814.47	2660.58
3816.43	2660.24
3818.38	2703.89
3820.34	2683.55
3822.29	2727.2
3824.25	2694.85
3826.2	2670.51
3828.16	2686.16
3830.11	2677.81
3832.06	2723.47
3834.01	2621.12
3835.96	2664.78
3837.91	2634.43
3839.86	2690.08
3841.81	2657.74
3843.75	2691.39
3845.7	2625.04
3847.65	2698.7
3849.59	2664.35
3851.54	2718.01
3853.48	2695.66
3855.43	2609.31
3857.37	2690.97
3859.31	2702.62
3861.25	2670.27
3863.2	2599.93
3865.14	2687.58
3867.08	2721.24
3869.01	2594.89
3870.95	2670.54
3872.89	2640.2
3874.83	2719.85
3876.77	2647.5
3878.7	2595.16
3880.64	2644.81
3882.57	2602.47
3884.51	2664.12
3886.44	2621.77
3888.37	2665.43
3890.31	2575.08
3892.24	2654.73
3894.17	2686.39
3896.1	2654.04
3898.03	2651.7
3899.96	2649.35
3901.89	2681
3903.81	2678.66
3905.74	2638.31
3907.67	2643.97
3909.59	2711.62
3911.52	2603.27
3913.44	2652.93
3915.37	2636.58
3917.29	2656.23
3919.21	2661.89
3921.14	2683.54
3923.06	2635.2
3924.98	2644.85
3926.9	2730.5
3928.82	2664.16
3930.74	2731.81
3932.66	2711.46
3934.57	2643.12
3936.49	2622.77
3938.41	2710.43
3940.32	2628.08
3942.24	2651.73
3944.15	2651.39
3946.07	2663.04
3947.98	2658.69
3949.89	2644.35
3951.8	2632
3953.72	2595.66
3955.63	2685.31
3957.54	2672.96
3959.45	2664.62
3961.36	2722.27
3963.26	2643.92
3965.17	2679.58
3967.08	2639.23
3968.98	2628.89
3970.89	2610.54
3972.79	2630.19
3974.7	2643.85
3976.6	2639.5
3978.51	2595.15
3980.41	2654.81
3982.31	2662.46
3984.21	2676.12
3986.11	2645.77
3988.01	2661.42
3989.91	2627.08
3991.81	2620.73
3993.71	2628.39
3995.61	2548.04
3997.51	2635.69
3999.4	2637.35
