#Acq. time (s)=	30
#Accumulations=	2
#Range (cm-¹)=	60...4000
#Windows=	2
#Auto scanning=	Off
#Autofocus=	Off
#AutoExposure=	Off
#Spike filter=	Multiple accum.
#Delay time (s)=	0
#Binning=	1
#Readout mode=	Signal
#DeNoise=	Off
#ICS correction=	Off
#Dark correction=	Off
#Inst. Process=	Off
#Detector Gain=	Best Dynamic Range
#Detector ADC=	45 kHz       
#Detector temperature (°C)=	-60.1
#Instrument=	XploRA Plus
#Detector=	Syncerity OE
#Objective=	x50_VIS_LWD
#Grating=	1200 (750nm)
#Filter=	50%
#Laser=	532nm_Edge
#Slit (µm)=	100 
#Hole (µm)=	300 
#Temperature=	0
#StageXY=	75x50mm Scan+
#StageZ=	Z motor
#X (µm)=	0
#Y (µm)=	0
#Z (µm)=	-0.2
#Full time(mm:ss)=	2:09
#Project=	
#Sample=	
#Site=	
#Title=	aqua_15_45_02_2026_04_01_2_30 s_532nm_Edge_1200 (750nm)_x50_VIS_LWD_100 µm_300 µm_50%
#Remark=	
#Date=	01.04.2026 15:45
#Acquired=	01.04.2026 15:45:37
#AxisType[0]=Intens
#AxisUnit[0]=Cnt
#AxisType[1]=Spectr
#AxisUnit[1]=1/cm
62.8738	1551
66.1253	1549
69.3736	1601
72.6208	1529
75.869	1481
79.1139	1489
82.3577	1437
85.6003	1383
88.844	1325
92.0844	1349
95.3237	1319
98.5619	1285
101.799	1237
105.035	1287
108.27	1247
111.503	1187
114.736	1187
117.967	1143
121.196	1179
124.425	1157
127.653	1165
130.88	1125
134.104	1083
137.328	1103
140.552	1077
143.773	1093
146.994	1103
150.212	1089
153.431	1377
156.647	1477
159.862	1407
163.078	1339
166.291	1159
169.502	1053
172.713	1097
175.924	1027
179.132	1005
182.339	1015
185.545	1049
188.75	1055
191.954	1067
195.157	1053
198.358	1067
201.559	1069
204.758	1019
207.954	1041
211.152	1075
214.348	1053
217.543	1073
220.734	1083
223.927	1121
227.117	1175
230.307	1247
233.495	1893
236.683	3693
239.868	6061
243.055	6261
246.238	5377
249.42	3923
252.603	2043
255.782	1545
258.961	1513
262.139	1915
265.315	5047
268.49	9063
271.665	9079
274.838	8225
278.01	5615
281.181	2773
284.351	3259
287.52	3679
290.688	3605
293.852	3213
297.018	2417
300.183	1727
303.344	1593
306.506	1521
309.665	1529
312.826	1485
315.983	1451
319.141	1425
322.296	1475
325.45	1499
328.604	1625
331.756	1951
334.907	2073
338.056	2001
341.205	1703
344.352	1475
347.498	1355
350.643	1311
353.788	1393
356.931	1715
360.073	1997
363.214	1907
366.353	1831
369.49	1571
372.628	1495
375.765	1413
378.898	1431
382.033	1395
385.164	1323
388.296	1325
391.426	1315
394.556	1313
397.683	1323
400.809	1449
403.936	1527
407.06	1549
410.183	1447
413.305	1307
416.426	1177
419.545	1125
422.664	1081
425.781	1089
428.898	1101
432.013	1109
435.128	1103
438.239	1127
441.351	1133
444.463	1169
447.571	1177
450.68	1125
453.786	1195
456.893	1261
459.997	1311
463.102	1239
466.204	1225
469.305	1217
472.406	1219
475.505	1161
478.603	1241
481.699	1297
484.795	1323
487.889	1379
490.983	1405
494.075	1397
497.166	1377
500.257	1323
503.346	1303
506.434	1277
509.519	1337
512.606	1491
515.691	1883
518.773	2385
521.856	2725
524.936	2501
528.017	2257
531.094	1739
534.171	1375
537.247	1265
540.324	1269
543.398	1309
546.47	1485
549.542	1707
552.613	1823
555.682	1757
558.751	1739
561.818	1695
564.885	1665
567.95	1541
571.013	1453
574.076	1335
577.138	1303
580.198	1271
583.258	1227
586.315	1267
589.374	1293
592.429	1251
595.485	1225
598.538	1265
601.59	1233
604.643	1237
607.693	1237
610.743	1265
613.791	1273
616.838	1249
619.884	1243
622.929	1271
625.973	1271
629.013	1267
632.055	1319
635.096	1283
638.136	1369
641.173	1371
644.211	1403
647.246	1343
650.282	1315
653.314	1315
656.348	1289
659.379	1259
662.409	1299
665.437	1257
668.465	1289
671.494	1299
674.52	1255
677.544	1287
680.568	1299
683.589	1281
686.61	1329
689.631	1281
692.651	1317
695.669	1253
698.685	1301
701.702	1327
704.715	1289
707.73	1335
710.742	1351
713.754	1323
716.764	1353
719.772	1341
722.78	1287
725.789	1309
728.794	1343
731.799	1327
734.802	1365
737.805	1339
740.807	1423
743.807	1381
746.805	1321
749.804	1347
752.801	1357
755.796	1411
758.792	1373
761.786	1407
764.778	1381
767.769	1407
770.76	1435
773.749	1405
776.737	1435
779.725	1409
782.711	1449
785.696	1451
788.68	1427
791.662	1403
794.644	1445
797.625	1447
800.605	1391
803.582	1383
806.559	1435
809.536	1449
812.51	1413
815.485	1469
818.457	1481
821.43	1471
824.4	1453
827.369	1479
830.339	1531
833.306	1491
836.272	1501
839.237	1541
842.201	1567
845.164	1669
848.126	1731
851.087	1755
854.047	1891
857.007	1877
859.963	1857
862.92	1841
865.876	1769
868.83	1749
871.784	1717
874.735	1687
877.686	1713
880.637	1727
883.586	1785
886.533	1759
889.48	1883
892.425	1905
895.37	2115
898.313	2241
901.256	2423
904.198	2659
907.138	3053
910.078	3257
913.015	3649
915.953	4205
918.888	4919
921.824	5757
924.757	6545
927.691	6745
930.622	6469
933.552	5919
936.481	5329
939.411	4561
942.338	3923
945.264	3225
948.19	2791
951.114	2393
954.035	2237
956.958	2121
959.879	2011
962.8	1917
965.717	1931
968.636	1877
971.552	1945
974.468	1991
977.382	2159
980.295	2425
983.209	2793
986.12	3001
989.03	2783
991.939	2555
994.847	2219
997.754	2117
1000.66	2155
1003.57	2233
1006.47	2333
1009.37	2551
1012.27	2537
1015.17	2505
1018.07	2203
1020.97	2061
1023.87	1971
1026.77	1859
1029.66	1813
1032.56	1761
1035.45	1695
1038.34	1719
1041.23	1695
1044.12	1665
1047.01	1657
1049.9	1663
1052.78	1599
1055.67	1659
1058.56	1675
1061.44	1619
1064.32	1695
1067.2	1638.72
1070.08	1650.45
1072.96	1638.17
1075.84	1643.9
1078.72	1659.62
1081.6	1605.35
1084.47	1693.07
1087.35	1654.79
1090.22	1688.52
1093.09	1714.24
1095.96	1693.97
1098.83	1697.69
1101.7	1667.42
1104.57	1673.14
1107.43	1680.86
1110.3	1734.59
1113.16	1760.31
1116.03	1722.04
1118.89	1683.76
1121.75	1669.49
1124.61	1643.21
1127.47	1686.94
1130.33	1732.66
1133.19	1684.38
1136.04	1734.11
1138.9	1745.83
1141.75	1779.56
1144.61	1753.28
1147.46	1739.01
1150.31	1694.73
1153.16	1732.45
1156.01	1812.18
1158.86	1933.9
1161.7	2055.63
1164.55	2105.35
1167.39	2165.08
1170.24	2018.8
1173.08	1932.52
1175.92	1910.25
1178.76	1813.97
1181.6	1779.7
1184.44	1777.42
1187.28	1735.15
1190.12	1740.87
1192.95	1772.6
1195.79	1702.32
1198.62	1794.04
1201.45	1763.77
1204.28	1755.49
1207.11	1809.22
1209.94	1746.94
1212.77	1782.67
1215.6	1732.39
1218.42	1788.11
1221.25	1773.84
1224.07	1841.56
1226.9	1777.29
1229.72	1771.01
1232.54	1786.74
1235.36	1766.46
1238.18	1780.18
1241	1787.91
1243.81	1757.63
1246.63	1743.36
1249.44	1813.08
1252.26	1800.81
1255.07	1768.53
1257.88	1748.26
1260.69	1821.98
1263.5	1791.7
1266.31	1799.43
1269.12	1769.15
1271.92	1772.88
1274.73	1818.6
1277.53	1804.33
1280.34	1810.05
1283.14	1871.77
1285.94	1871.5
1288.74	1811.22
1291.54	1800.95
1294.34	1878.67
1297.14	1894.4
1299.93	1914.12
1302.73	1881.84
1305.52	1863.57
1308.31	1869.29
1311.11	1843.02
1313.9	1890.74
1316.69	1860.47
1319.48	1868.19
1322.26	1867.91
1325.05	1879.64
1327.84	1933.36
1330.62	1849.09
1333.41	1904.81
1336.19	1860.54
1338.97	1844.26
1341.75	1861.99
1344.53	1857.71
1347.31	1869.43
1350.09	1885.16
1352.87	1894.88
1355.64	1826.61
1358.42	1868.33
1361.19	1896.06
1363.96	1887.78
1366.74	1859.5
1369.51	1901.23
1372.28	1910.95
1375.04	1866.68
1377.81	1816.4
1380.58	1842.13
1383.34	1863.85
1386.11	1851.57
1388.87	1815.3
1391.63	1897.02
1394.4	1926.75
1397.16	1922.47
1399.92	1868.2
1402.67	1859.92
1405.43	1907.65
1408.19	1903.37
1410.95	1877.09
1413.7	1896.82
1416.45	1904.54
1419.21	1938.27
1421.96	1975.99
1424.71	1931.72
1427.46	1895.44
1430.21	1917.16
1432.95	1902.89
1435.7	1940.61
1438.45	1964.34
1441.19	1968.06
1443.93	1899.79
1446.68	1895.51
1449.42	1907.23
1452.16	1892.96
1454.9	1904.68
1457.64	1882.41
1460.37	1918.13
1463.11	1841.86
1465.85	1871.58
1468.58	1849.3
1471.31	1807.03
1474.05	1832.75
1476.78	1878.48
1479.51	1864.2
1482.24	1849.93
1484.97	1861.65
1487.69	1875.38
1490.42	1905.1
1493.15	1890.82
1495.87	1854.55
1498.59	1866.27
1501.32	1866
1504.04	1853.72
1506.76	1901.45
1509.48	1907.17
1512.2	1828.89
1514.91	1848.62
1517.63	1904.34
1520.35	1908.07
1523.06	1867.79
1525.77	1933.52
1528.49	1913.24
1531.2	1922.96
1533.91	1866.69
1536.62	1892.41
1539.33	1948.14
1542.04	1887.86
1544.74	1889.59
1547.45	1921.31
1550.15	1921.03
1552.85	1910.76
1555.56	1918.48
1558.26	1906.21
1560.96	1867.93
1563.66	1973.66
1566.36	1859.38
1569.06	1903.11
1571.75	1852.83
1574.45	1852.55
1577.14	1858.28
1579.84	1958
1582.53	1853.73
1585.22	1849.45
1587.91	1911.18
1590.6	1870.9
1593.29	1896.62
1595.98	1886.35
1598.67	1868.07
1601.35	1873.8
1604.04	1861.52
1606.72	1875.25
1609.4	1872.97
1612.09	1896.69
1614.77	1884.42
1617.45	1854.14
1620.13	1867.87
1622.8	1867.59
1625.48	1875.32
1628.16	1877.04
1630.83	1866.77
1633.51	1906.49
1636.18	1890.21
1638.85	1917.94
1641.52	1865.66
1644.19	1893.39
1646.86	1883.11
1649.53	1862.84
1652.2	1932.56
1654.86	1872.28
1657.53	1866.01
1660.2	1871.73
1662.86	1863.46
1665.52	1895.18
1668.18	1846.91
1670.84	1874.63
1673.5	1874.35
1676.16	1828.08
1678.82	1859.8
1681.47	1819.53
1684.13	1861.25
1686.79	1916.98
1689.44	1844.7
1692.09	1880.42
1694.74	1842.15
1697.39	1805.87
1700.04	1847.6
1702.69	1831.32
1705.34	1891.05
1707.99	1860.77
1710.64	1804.5
1713.28	1866.22
1715.92	1785.94
1718.57	1829.67
1721.21	1829.39
1723.85	1841.12
1726.49	1866.84
1729.13	1826.57
1731.77	1794.29
1734.41	1770.01
1737.04	1813.74
1739.68	1791.46
1742.31	1831.19
1744.94	1852.91
1747.58	1768.64
1750.21	1864.36
1752.84	1852.08
1755.47	1771.81
1758.1	1793.53
1760.73	1855.26
1763.35	1812.98
1765.98	1836.71
1768.6	1776.43
1771.23	1856.15
1773.85	1773.88
1776.47	1737.6
1779.09	1795.33
1781.71	1811.05
1784.33	1810.78
1786.95	1826.5
1789.57	1832.23
1792.18	1809.95
1794.8	1753.67
1797.41	1773.4
1800.03	1805.12
1802.64	1830.85
1805.25	1774.57
1807.86	1792.3
1810.47	1776.02
1813.08	1813.74
1815.69	1821.47
1818.29	1785.19
1820.9	1758.92
1823.5	1736.64
1826.11	1766.37
1828.71	1764.09
1831.31	1765.81
1833.91	1765.54
1836.51	1787.26
1839.11	1770.99
1841.71	1784.71
1844.31	1812.44
1846.9	1812.16
1849.5	1777.89
1852.09	1791.61
1854.69	1749.33
1857.28	1841.06
1859.87	1742.78
1862.46	1754.51
1865.05	1724.23
1867.64	1769.96
1870.23	1769.68
1872.81	1763.4
1875.4	1767.13
1877.98	1776.85
1880.57	1760.58
1883.15	1774.3
1885.73	1736.03
1888.31	1755.75
1890.89	1729.47
1893.47	1743.2
1896.05	1760.92
1898.63	1758.65
1901.2	1764.37
1903.78	1780.1
1906.35	1715.82
1908.93	1803.54
1911.5	1771.27
1914.07	1780.99
1916.64	1776.72
1919.21	1768.44
1921.78	1744.17
1924.35	1761.89
1926.92	1729.62
1929.48	1735.34
1932.05	1733.06
1934.61	1710.79
1937.17	1730.51
1939.74	1716.24
1942.3	1731.96
1944.86	1737.69
1947.42	1721.41
1949.98	1743.13
1952.53	1684.86
1955.09	1730.58
1957.65	1738.31
1960.2	1740.03
1962.76	1747.76
1965.31	1761.48
1967.86	1743.2
1970.41	1718.93
1972.96	1684.65
1975.51	1726.38
1978.06	1728.1
1980.61	1699.83
1983.15	1711.55
1985.7	1761.28
1988.24	1673
1990.79	1752.72
1993.33	1710.45
1995.87	1702.17
1998.41	1653.9
2000.95	1703.62
2003.49	1701.35
2006.03	1699.07
2008.57	1734.79
2011.1	1696.52
2013.64	1658.24
2016.17	1657.97
2018.71	1703.69
2021.24	1693.42
2023.77	1723.14
2026.3	1706.86
2028.83	1664.59
2031.36	1684.31
2033.89	1662.04
2036.41	1647.76
2038.94	1701.49
2041.47	1673.21
2043.99	1654.93
2046.51	1716.66
2049.04	1722.38
2051.56	1696.11
2054.08	1725.83
2056.6	1681.56
2059.12	1659.28
2061.63	1687.01
2064.15	1680.73
2066.67	1722.45
2069.18	1626.18
2071.7	1673.9
2074.21	1679.63
2076.72	1659.35
2079.23	1665.08
2081.74	1706.8
2084.25	1672.52
2086.76	1662.25
2089.27	1687.97
2091.78	1657.7
2094.28	1677.42
2096.79	1723.15
2099.29	1710.87
2101.8	1688.59
2104.3	1684.32
2106.8	1712.04
2109.3	1625.77
2111.8	1645.49
2114.3	1719.22
2116.79	1698.94
2119.29	1732.67
2121.79	1750.39
2124.28	1662.11
2126.78	1693.84
2129.27	1723.56
2131.76	1705.29
2134.25	1675.01
2136.74	1744.74
2139.23	1704.46
2141.72	1666.18
2144.21	1611.91
2146.7	1663.63
2149.18	1681.36
2151.67	1681.08
2154.15	1698.81
2156.63	1674.53
2159.12	1658.25
2161.6	1649.98
2164.08	1639.7
2166.56	1677.43
2169.04	1681.15
2171.51	1622.88
2173.99	1630.6
2176.47	1624.32
2178.94	1674.05
2181.42	1695.77
2183.89	1651.5
2186.36	1647.22
2188.83	1612.95
2191.3	1646.67
2193.77	1632.4
2196.24	1670.12
2198.71	1627.84
2201.18	1643.57
2203.64	1677.29
2206.11	1641.02
2208.57	1684.74
2211.04	1672.47
2213.5	1686.19
2215.96	1615.91
2218.42	1605.64
2220.88	1697.36
2223.34	1637.09
2225.8	1662.81
2228.25	1646.54
2230.71	1712.26
2233.17	1657.98
2235.62	1683.71
2238.07	1717.43
2240.52	1667.16
2242.98	1680.88
2245.43	1712.61
2247.88	1766.33
2250.33	1668.05
2252.77	1749.78
2255.22	1685.5
2257.67	1757.23
2260.11	1708.95
2262.56	1702.68
2265	1712.4
2267.44	1708.13
2269.89	1719.85
2272.33	1761.57
2274.77	1707.3
2277.21	1711.02
2279.65	1700.75
2282.08	1728.47
2284.52	1742.2
2286.96	1725.92
2289.39	1685.64
2291.82	1725.37
2294.26	1731.09
2296.69	1766.82
2299.12	1716.54
2301.55	1764.27
2303.98	1703.99
2306.41	1679.71
2308.83	1665.44
2311.26	1731.16
2313.69	1702.89
2316.11	1658.61
2318.54	1698.34
2320.96	1744.06
2323.38	1707.79
2325.8	1693.51
2328.22	1747.23
2330.65	1764.96
2333.06	1808.68
2335.48	1816.41
2337.9	1742.13
2340.31	1735.86
2342.73	1737.58
2345.14	1721.3
2347.56	1709.03
2349.97	1716.75
2352.38	1712.48
2354.79	1692.2
2357.2	1741.93
2359.61	1731.65
2362.02	1745.37
2364.43	1721.1
2366.83	1720.82
2369.24	1736.55
2371.64	1738.27
2374.05	1770
2376.45	1719.72
2378.85	1761.44
2381.26	1799.17
2383.65	1716.89
2386.06	1806.62
2388.45	1760.34
2390.85	1792.07
2393.25	1747.79
2395.64	1787.52
2398.04	1775.24
2400.43	1754.96
2402.83	1772.69
2405.22	1846.41
2407.61	1862.14
2410	1773.86
2412.39	1821.59
2414.78	1787.31
2417.17	1819.03
2419.56	1814.76
2421.94	1724.48
2424.33	1774.21
2426.71	1807.93
2429.1	1733.66
2431.48	1773.38
2433.86	1795.1
2436.24	1740.83
2438.62	1758.55
2441	1838.28
2443.38	1756
2445.76	1817.73
2448.14	1745.45
2450.51	1879.18
2452.89	1808.9
2455.26	1756.62
2457.63	1772.35
2460.01	1848.07
2462.38	1779.8
2464.75	1783.52
2467.12	1849.25
2469.49	1750.97
2471.86	1802.69
2474.22	1798.42
2476.59	1778.14
2478.96	1795.87
2481.32	1847.59
2483.69	1887.32
2486.05	1843.04
2488.41	1842.76
2490.77	1766.49
2493.13	1798.21
2495.49	1797.94
2497.85	1859.66
2500.21	1835.39
2502.56	1791.11
2504.92	1798.83
2507.28	1788.56
2509.63	1830.28
2511.99	1782.01
2514.34	1825.73
2516.69	1857.46
2519.04	1731.18
2521.39	1800.91
2523.74	1832.63
2526.09	1824.35
2528.44	1852.08
2530.78	1797.8
2533.13	1811.53
2535.47	1841.25
2537.82	1828.98
2540.16	1822.7
2542.5	1832.42
2544.85	1804.15
2547.19	1817.87
2549.53	1829.6
2551.87	1817.32
2554.2	1757.05
2556.54	1830.77
2558.88	1806.49
2561.21	1756.22
2563.55	1843.85
2565.88	1841.65
2568.21	1808.15
2570.55	1827.37
2572.88	1809.74
2575.21	1852.96
2577.54	1847.62
2579.87	1799.81
2582.19	1857.12
2584.52	1872.69
2586.85	1868.64
2589.17	1889
2591.5	1847.95
2593.82	1859.47
2596.15	1887.6
2598.47	1903.86
2600.79	1867.42
2603.11	1876.27
2605.43	1858.38
2607.75	1857.8
2610.07	1837.98
2612.38	1843.86
2614.7	1845.06
2617.01	1878.61
2619.33	1846
2621.64	1878.3
2623.96	1866.92
2626.27	1883.43
2628.58	1877.2
2630.89	1890.87
2633.2	1905.43
2635.51	1850.31
2637.81	1854.31
2640.12	1851.25
2642.43	1898.81
2644.73	1909.09
2647.04	1917.67
2649.34	1893.22
2651.64	1896.99
2653.94	1866.86
2656.25	1883.24
2658.55	1892.27
2660.85	1894.57
2663.14	1870.55
2665.44	1872.7
2667.74	1889.47
2670.03	1886.69
2672.33	1892.84
2674.62	1887.79
2676.92	1904.71
2679.21	1883.54
2681.5	1886.29
2683.79	1902.68
2686.08	1886.16
2688.37	1868.82
2690.66	1886.48
2692.95	1863.28
2695.24	1891.6
2697.52	1906.92
2699.81	1912.62
2702.09	1902.38
2704.37	1908.14
2706.66	1890.38
2708.94	1922.7
2711.22	1926.82
2713.5	1908.57
2715.78	1924.03
2718.06	1929.17
2720.33	1938.3
2722.61	1960.14
2724.89	1916.43
2727.16	1917.07
2729.44	1921.74
2731.71	1950.3
2733.98	1955.85
2736.26	1930.77
2738.53	1915.59
2740.8	1927.62
2743.07	1942.89
2745.33	1962.24
2747.6	1974.96
2749.87	1956.23
2752.14	1956.38
2754.4	1953.91
2756.66	1965.08
2758.93	1939.58
2761.19	1991.09
2763.45	1941.05
2765.72	1950.18
2767.98	2005.71
2770.23	1964.03
2772.49	1968.1
2774.75	1968.39
2777.01	1966.22
2779.26	2026.79
2781.52	1993.46
2783.77	2016.07
2786.03	1989.36
2788.28	1965.85
2790.53	1990.45
2792.78	1941
2795.03	1975.12
2797.28	1990.38
2797.45	1991.13
2799.74	1994.95
2802.03	2004.77
2804.32	2016.59
2806.6	2010.41
2808.89	1998.23
2811.17	1966.05
2813.46	2021.87
2815.74	2021.69
2818.02	1941.51
2820.3	2031.33
2822.58	1995.15
2824.86	1982.97
2827.14	2008.79
2829.42	2002.61
2831.7	1974.43
2833.98	1998.24
2836.25	1992.06
2838.53	1999.88
2840.8	1993.7
2843.08	2013.52
2845.35	1987.34
2847.62	2001.16
2849.9	2078.98
2852.17	2032.8
2854.44	2034.62
2856.71	1954.44
2858.98	2072.26
2861.24	2010.08
2863.51	2011.9
2865.78	2029.72
2868.04	2067.54
2870.31	2085.36
2872.57	2083.18
2874.84	2047
2877.1	2052.82
2879.36	2094.64
2881.62	2084.45
2883.89	2084.27
2886.15	2070.09
2888.41	2067.91
2890.66	2091.73
2892.92	2087.55
2895.18	2043.37
2897.44	2071.19
2899.69	2107.01
2901.95	2108.83
2904.2	2162.65
2906.46	2120.47
2908.71	2112.29
2910.96	2056.11
2913.21	2115.93
2915.46	2143.75
2917.71	2031.57
2919.96	2115.39
2922.21	2121.21
2924.46	2139.03
2926.71	2048.85
2928.95	2130.67
2931.2	2168.48
2933.44	2106.3
2935.68	2146.12
2937.93	2093.94
2940.17	2175.76
2942.41	2137.58
2944.65	2177.4
2946.89	2101.22
2949.13	2181.04
2951.37	2148.86
2953.61	2170.68
2955.85	2122.5
2958.09	2200.32
2960.32	2122.14
2962.56	2159.96
2964.79	2165.78
2967.03	2255.6
2969.26	2097.42
2971.49	2117.24
2973.72	2249.06
2975.95	2236.88
2978.18	2218.69
2980.41	2192.51
2982.64	2136.33
2984.87	2238.15
2987.1	2223.97
2989.33	2125.79
2991.55	2235.61
2993.78	2183.43
2996	2157.25
2998.22	2175.07
3000.45	2202.89
3002.67	2186.71
3004.89	2170.53
3007.11	2222.35
3009.33	2178.17
3011.55	2187.99
3013.77	2171.81
3015.99	2173.63
3018.21	2163.45
3020.42	2225.27
3022.64	2191.09
3024.85	2160.9
3027.07	2210.72
3029.28	2226.54
3031.49	2166.36
3033.71	2178.18
3035.92	2218
3038.13	2205.82
3040.34	2227.64
3042.55	2161.46
3044.76	2221.28
3046.97	2185.1
3049.17	2222.92
3051.38	2212.74
3053.58	2252.56
3055.79	2180.38
3058	2218.2
3060.2	2226.02
3062.4	2159.84
3064.6	2191.66
3066.8	2225.48
3069.01	2245.3
3071.21	2239.11
3073.41	2178.93
3075.6	2246.75
3077.8	2238.57
3080	2226.39
3082.2	2274.21
3084.39	2224.03
3086.59	2215.85
3088.78	2249.67
3090.97	2289.49
3093.17	2217.31
3095.36	2249.13
3097.55	2288.95
3099.74	2268.77
3101.93	2288.59
3104.12	2278.41
3106.31	2248.23
3108.5	2238.05
3110.68	2317.87
3112.87	2273.69
3115.06	2299.51
3117.24	2297.32
3119.43	2227.14
3121.61	2208.96
3123.79	2208.78
3125.98	2248.6
3128.16	2276.42
3130.34	2310.24
3132.52	2282.06
3134.7	2253.88
3136.88	2281.7
3139.05	2297.52
3141.23	2257.34
3143.41	2335.16
3145.58	2336.98
3147.76	2310.8
3149.93	2298.62
3152.11	2222.44
3154.28	2264.26
3156.45	2262.08
3158.63	2321.9
3160.8	2331.72
3162.97	2303.53
3165.14	2307.35
3167.3	2289.17
3169.47	2354.99
3171.64	2324.81
3173.81	2372.63
3175.97	2352.45
3178.14	2330.27
3180.3	2276.09
3182.47	2311.91
3184.63	2353.73
3186.79	2267.55
3188.95	2353.37
3191.11	2349.19
3193.28	2299.01
3195.43	2328.83
3197.59	2254.65
3199.75	2332.47
3201.91	2318.29
3204.07	2308.11
3206.22	2359.93
3208.38	2293.75
3210.53	2351.56
3212.69	2299.38
3214.84	2319.2
3216.99	2291.02
3219.14	2370.84
3221.3	2324.66
3223.45	2264.48
3225.6	2280.3
3227.75	2376.12
3229.89	2325.94
3232.04	2397.76
3234.19	2337.58
3236.34	2371.4
3238.48	2349.22
3240.62	2351.04
3242.77	2380.86
3244.91	2304.68
3247.06	2370.5
3249.2	2368.32
3251.34	2386.14
3253.48	2317.96
3255.62	2297.77
3257.76	2371.59
3259.9	2413.41
3262.04	2367.23
3264.17	2377.05
3266.31	2380.87
3268.45	2350.69
3270.58	2388.51
3272.72	2394.33
3274.85	2420.15
3276.98	2407.97
3279.12	2375.79
3281.25	2379.61
3283.38	2435.43
3285.51	2397.25
3287.64	2381.07
3289.77	2398.89
3291.89	2436.71
3294.02	2370.53
3296.15	2362.35
3298.28	2404.17
3300.4	2421.98
3302.53	2353.8
3304.65	2415.62
3306.77	2395.44
3308.9	2321.26
3311.02	2393.08
3313.14	2430.9
3315.26	2418.72
3317.38	2396.54
3319.5	2414.36
3321.62	2436.18
3323.74	2408
3325.85	2387.82
3327.97	2425.64
3330.08	2399.46
3332.2	2485.28
3334.31	2453.1
3336.43	2492.92
3338.54	2436.74
3340.65	2440.56
3342.77	2448.38
3344.88	2434.19
3346.99	2452.01
3349.1	2455.83
3351.21	2423.65
3353.31	2437.47
3355.42	2451.29
3357.53	2467.11
3359.63	2458.93
3361.74	2464.75
3363.84	2454.57
3365.95	2468.39
3368.05	2458.21
3370.15	2500.03
3372.26	2429.85
3374.36	2439.67
3376.46	2431.49
3378.56	2417.31
3380.66	2503.13
3382.76	2436.95
3384.85	2468.77
3386.95	2432.59
3389.05	2466.4
3391.14	2442.22
3393.24	2426.04
3395.33	2491.86
3397.43	2401.68
3399.52	2477.5
3401.61	2479.32
3403.7	2445.14
3405.79	2478.96
3407.89	2572.78
3409.98	2490.6
3412.06	2486.42
3414.15	2580.24
3416.24	2534.06
3418.33	2457.88
3420.41	2509.7
3422.5	2477.52
3424.58	2465.34
3426.67	2503.16
3428.75	2502.98
3430.83	2520.8
3432.92	2480.61
3435	2534.43
3437.08	2500.25
3439.16	2444.07
3441.24	2541.89
3443.32	2481.71
3445.4	2529.53
3447.47	2515.35
3449.55	2503.17
3451.63	2494.99
3453.7	2550.81
3455.78	2506.63
3457.85	2486.45
3459.92	2514.27
3462	2548.09
3464.07	2531.91
3466.14	2495.73
3468.21	2509.55
3470.28	2535.37
3472.35	2589.19
3474.42	2487.01
3476.49	2528.83
3478.55	2540.64
3480.62	2532.46
3482.69	2542.28
3484.75	2532.1
3486.82	2527.92
3488.88	2539.74
3490.94	2547.56
3493.01	2471.38
3495.07	2535.2
3497.13	2571.02
3499.19	2602.84
3501.25	2554.66
3503.31	2468.48
3505.37	2542.3
3507.43	2514.12
3509.48	2529.94
3511.54	2525.76
3513.59	2523.58
3515.65	2621.4
3517.7	2493.22
3519.76	2613.04
3521.81	2548.85
3523.86	2534.67
3525.92	2514.49
3527.97	2480.31
3530.02	2552.13
3532.07	2499.95
3534.12	2525.77
3536.16	2517.59
3538.21	2569.41
3540.26	2523.23
3542.31	2499.05
3544.35	2574.87
3546.4	2568.69
3548.44	2524.51
3550.49	2564.33
3552.53	2602.15
3554.57	2619.97
3556.61	2523.79
3558.65	2539.61
3560.69	2563.43
3562.73	2549.25
3564.77	2563.06
3566.81	2560.88
3568.85	2556.7
3570.89	2540.52
3572.92	2542.34
3574.96	2568.16
3576.99	2507.98
3579.03	2523.8
3581.06	2503.62
3583.1	2583.44
3585.13	2603.26
3587.16	2553.08
3589.19	2540.9
3591.22	2572.72
3593.25	2546.54
3595.28	2592.36
3597.31	2586.18
3599.34	2554
3601.36	2669.82
3603.39	2655.64
3605.42	2595.46
3607.44	2627.27
3609.47	2611.09
3611.49	2618.91
3613.51	2568.73
3615.53	2588.55
3617.56	2616.37
3619.58	2664.19
3621.6	2600.01
3623.62	2543.83
3625.64	2607.65
3627.66	2611.47
3629.67	2669.29
3631.69	2647.11
3633.71	2680.93
3635.72	2666.75
3637.74	2852.57
3639.75	2912.39
3641.77	3050.21
3643.78	3330.03
3645.79	3551.85
3647.8	3837.67
3649.82	4127.48
3651.83	4723.3
3653.84	5715.12
3655.85	6530.94
3657.85	6622.76
3659.86	6180.58
3661.87	5136.4
3663.88	4026.22
3665.88	3320.04
3667.89	3037.86
3669.89	2827.68
3671.9	2775.5
3673.9	2729.32
3675.9	2713.14
3677.9	2722.96
3679.91	2640.78
3681.91	2642.6
3683.91	2678.42
3685.91	2720.24
3687.9	2654.06
3689.9	2637.88
3691.9	2653.7
3693.9	2679.51
3695.89	2713.33
3697.89	2675.15
3699.88	2674.97
3701.88	2716.79
3703.87	2582.61
3705.86	2670.43
3707.86	2704.25
3709.85	2728.07
3711.84	2735.89
3713.83	2673.71
3715.82	2695.53
3717.81	2617.35
3719.8	2705.17
3721.78	2692.99
3723.77	2704.81
3725.76	2714.63
3727.74	2700.45
3729.73	2758.27
3731.71	2684.09
3733.7	2729.91
3735.68	2711.72
3737.66	2729.54
3739.64	2695.36
3741.62	2669.18
3743.61	2629
3745.58	2708.82
3747.56	2694.64
3749.54	2678.46
3751.52	2700.28
3753.5	2702.1
3755.47	2657.92
3757.45	2687.74
3759.43	2669.56
3761.4	2671.38
3763.37	2679.2
3765.35	2669.02
3767.32	2668.84
3769.29	2646.66
3771.26	2620.48
3773.24	2640.3
3775.21	2610.12
3777.17	2699.93
3779.14	2623.75
3781.11	2597.57
3783.08	2613.39
3785.05	2643.21
3787.01	2627.03
3788.98	2660.85
3790.94	2698.67
3792.91	2642.49
3794.87	2644.31
3796.83	2592.13
3798.8	2639.95
3800.76	2597.77
3802.72	2683.59
3804.68	2653.41
3806.64	2671.23
3808.6	2619.05
3810.56	2610.87
3812.51	2612.69
3814.47	2566.51
3816.43	2698.33
3818.38	2594.14
3820.34	2673.96
3822.29	2667.78
3824.25	2627.6
3826.2	2615.42
3828.16	2641.24
3830.11	2619.06
3832.06	2678.88
3834.01	2608.7
3835.96	2566.52
3837.91	2540.34
3839.86	2552.16
3841.81	2619.98
3843.75	2633.8
3845.7	2627.62
3847.65	2601.44
3849.59	2599.26
3851.54	2599.08
3853.48	2576.9
3855.43	2596.72
3857.37	2618.54
3859.31	2634.35
3861.25	2580.17
3863.2	2595.99
3865.14	2571.81
3867.08	2603.63
3869.01	2581.45
3870.95	2605.27
3872.89	2615.09
3874.83	2606.91
3876.77	2636.73
3878.7	2554.55
3880.64	2584.37
3882.57	2568.19
3884.51	2610.01
3886.44	2593.83
3888.37	2599.65
3890.31	2611.47
3892.24	2619.29
3894.17	2579.11
3896.1	2606.93
3898.03	2570.75
3899.96	2578.56
3901.89	2538.38
3903.81	2590.2
3905.74	2546.02
3907.67	2589.84
3909.59	2551.66
3911.52	2577.48
3913.44	2601.3
3915.37	2527.12
3917.29	2556.94
3919.21	2562.76
3921.14	2542.58
3923.06	2592.4
3924.98	2482.22
3926.9	2498.04
3928.82	2551.86
3930.74	2563.68
3932.66	2559.5
3934.57	2569.32
3936.49	2507.14
3938.41	2568.96
3940.32	2580.78
3942.24	2592.59
3944.15	2538.41
3946.07	2570.23
3947.98	2494.05
3949.89	2515.87
3951.8	2517.69
3953.72	2495.51
3955.63	2513.33
3957.54	2599.15
3959.45	2574.97
3961.36	2520.79
3963.26	2518.61
3965.17	2482.43
3967.08	2520.25
3968.98	2492.07
3970.89	2581.89
3972.79	2527.71
3974.7	2525.53
3976.6	2521.35
3978.51	2503.17
3980.41	2482.99
3982.31	2506.8
3984.21	2482.62
3986.11	2540.44
3988.01	2554.26
3989.91	2492.08
3991.81	2509.9
3993.71	2523.72
3995.61	2397.54
3997.51	2517.36
3999.4	2509.18
