#Acq. time (s)=	10
#Accumulations=	4
#Range (cm-¹)=	60...4000
#Windows=	2
#Auto scanning=	Off
#Autofocus=	Off
#AutoExposure=	Off
#Spike filter=	Multiple accum.
#Delay time (s)=	0
#Binning=	1
#Readout mode=	Signal
#DeNoise=	Off
#ICS correction=	Off
#Dark correction=	Off
#Inst. Process=	Off
#Detector Gain=	Best Dynamic Range
#Detector ADC=	45 kHz       
#Detector temperature (°C)=	-60.1
#Instrument=	XploRA Plus
#Detector=	Syncerity OE
#Objective=	x50_VIS_LWD
#Grating=	1200 (750nm)
#Filter=	10%
#Laser=	532nm_Edge
#Slit (µm)=	100 
#Hole (µm)=	300 
#Temperature=	0
#StageXY=	75x50mm Scan+
#StageZ=	Z motor
#X (µm)=	0
#Y (µm)=	0
#Z (µm)=	-0.2
#Full time(mm:ss)=	1:30
#Project=	
#Sample=	
#Site=	
#Title=	zircon_14_05_26_2026_04_01_4_10 s_532nm_Edge_1200 (750nm)_x50_VIS_LWD_100 µm_300 µm_10%
#Remark=	
#Date=	01.04.2026 14:05
#Acquired=	01.04.2026 14:05:42
#AxisType[0]=Intens
#AxisUnit[0]=Cnt
#AxisType[1]=Spectr
#AxisUnit[1]=1/cm
62.8738	221.667
66.1253	232.333
69.3736	238.333
72.6208	227
75.869	241.667
79.1139	241.667
82.3577	239
85.6003	239
88.844	237.667
92.0844	241.667
95.3237	225.667
98.5619	238.333
101.799	231
105.035	227.667
108.27	219.667
111.503	227.667
114.736	221
117.967	230.333
121.196	237.667
124.425	225.667
127.653	229.667
130.88	234.333
134.104	237
137.328	244.333
140.552	240.333
143.773	253
146.994	271.667
150.212	271.667
153.431	282.333
156.647	286.333
159.862	300.333
163.078	298.333
166.291	305.667
169.502	325.667
172.713	339
175.924	338.333
179.132	353.667
182.339	364.333
185.545	392.333
188.75	451.667
191.954	503.667
195.157	871
198.358	3755.67
201.559	5887
204.758	4812.33
207.954	3941
211.152	2715
214.348	1878.33
217.543	2623.67
220.734	6847.67
223.927	11866.3
227.117	10371.7
230.307	8076.33
233.495	4863
236.683	1403
239.868	616.333
243.055	449
246.238	343.667
249.42	288.333
252.603	254.333
255.782	253
258.961	267
262.139	255
265.315	286.333
268.49	257.667
271.665	240.333
274.838	223.667
278.01	234.333
281.181	229
284.351	237
287.52	248.333
290.688	246.333
293.852	255
297.018	264.333
300.183	266.333
303.344	281
306.506	290.333
309.665	304.333
312.826	329
315.983	342.333
319.141	387.667
322.296	421
325.45	473
328.604	549.667
331.756	657.667
334.907	777.667
338.056	986.333
341.205	1333
344.352	2023.67
347.498	3724.33
350.643	10008.3
353.788	27115
356.931	35427.7
360.073	30043
363.214	22661
366.353	11461.7
369.49	3969
372.628	2021
375.765	1317
378.898	1009.67
382.033	806.333
385.164	757
388.296	707
391.426	729.667
394.556	718.333
397.683	671
400.809	617
403.936	587.667
407.06	556.333
410.183	564.333
413.305	583
416.426	612.333
419.545	619
422.664	665.667
425.781	801
428.898	1080.33
432.013	1961.67
435.128	4352.33
438.239	7271
441.351	7378.33
444.463	6075.67
447.571	4140.33
450.68	2027.67
453.786	1193
456.893	859
459.997	684.333
463.102	604.333
466.204	583.667
469.305	539.667
472.406	478.333
475.505	428.333
478.603	409.667
481.699	359.667
484.795	347.667
487.889	323
490.983	311
494.075	324.333
497.166	313
500.257	329.667
503.346	356.333
506.434	369
509.519	325
512.606	314.333
515.691	303
518.773	299.667
521.856	291.667
524.936	289
528.017	284.333
531.094	290.333
534.171	290.333
537.247	287.667
540.324	294.333
543.398	341
546.47	371
549.542	377.667
552.613	318.333
555.682	312.333
558.751	269.667
561.818	259.667
564.885	252.333
567.95	249
571.013	255
574.076	255.667
577.138	242.333
580.198	228.333
583.258	242.333
586.315	237
589.374	241.667
592.429	239.667
595.485	239
598.538	222.333
601.59	241.667
604.643	237.667
607.693	235.667
610.743	233.667
613.791	251.667
616.838	239
619.884	249
622.929	256.333
625.973	267
629.013	269.667
632.055	261.667
635.096	249
638.136	269.667
641.173	275.667
644.211	271
647.246	256.333
650.282	255.667
653.314	251.667
656.348	239
659.379	252.333
662.409	248.333
665.437	254.333
668.465	247.667
671.494	251.667
674.52	250.333
677.544	269.667
680.568	260.333
683.589	247.667
686.61	249
689.631	251
692.651	261.667
695.669	279
698.685	283.667
701.702	291
704.715	293
707.73	311.667
710.742	298.333
713.754	317.667
716.764	292.333
719.772	296.333
722.78	279.667
725.789	281.667
728.794	274.333
731.799	268.333
734.802	258.333
737.805	260.333
740.807	259.667
743.807	252.333
746.805	264.333
749.804	256.333
752.801	243
755.796	265
758.792	260.333
761.786	257.667
764.778	274.333
767.769	259.667
770.76	273
773.749	277.667
776.737	285.667
779.725	270.333
782.711	284.333
785.696	283
788.68	288.333
791.662	280.333
794.644	288.333
797.625	297.667
800.605	289
803.582	296.333
806.559	310.333
809.536	324.333
812.51	367
815.485	417
818.457	429
821.43	478.333
824.4	459
827.369	447
830.339	399.667
833.306	377.667
836.272	379.667
839.237	365
842.201	337
845.164	343.667
848.126	352.333
851.087	345
854.047	344.333
857.007	350.333
859.963	369.667
862.92	367
865.876	405
868.83	399.667
871.784	404.333
874.735	397.667
877.686	409.667
880.637	381.667
883.586	371.667
886.533	381
889.48	367
892.425	371.667
895.37	375.667
898.313	380.333
901.256	362.333
904.198	386.333
907.138	369
910.078	391
913.015	359
915.953	360.333
918.888	357
921.824	365.667
924.757	369
927.691	366.333
930.622	352.333
933.552	337.667
936.481	333
939.411	331
942.338	343.667
945.264	345.667
948.19	359.667
951.114	375
954.035	361
956.958	369
959.879	379.667
962.8	396.333
965.717	408.333
968.636	521
971.552	1115
974.468	1849.67
977.382	1752.33
980.295	1498.33
983.209	1011
986.12	567.667
989.03	530.333
991.939	493
994.847	534.333
997.754	653.667
1000.66	929.667
1003.57	2467.67
1006.47	8042.33
1009.37	10070.3
1012.27	8266.33
1015.17	6095.67
1018.07	2545.67
1020.97	869
1023.87	577.667
1026.77	468.333
1029.66	441
1032.56	396.333
1035.45	386.333
1038.34	392.333
1041.23	373.667
1044.12	360.333
1047.01	374.333
1049.9	368.333
1052.78	381.667
1055.67	370.333
1058.56	360.333
1061.44	353
1064.32	355
1067.2	345.036
1070.08	344.406
1072.96	343.776
1075.84	329.813
1078.72	344.516
1081.6	341.219
1084.47	353.922
1087.35	335.292
1090.22	352.662
1093.09	350.698
1095.96	370.068
1098.83	350.105
1101.7	348.141
1104.57	348.844
1107.43	350.214
1110.3	346.251
1113.16	353.62
1116.03	354.99
1118.89	357.027
1121.75	355.73
1124.61	353.1
1127.47	383.803
1130.33	382.506
1133.19	385.209
1136.04	395.246
1138.9	391.949
1141.75	424.652
1144.61	412.022
1147.46	442.725
1150.31	477.428
1153.16	500.798
1156.01	518.168
1158.86	538.871
1161.7	596.241
1164.55	649.611
1167.39	747.647
1170.24	861.684
1173.08	1024.39
1175.92	1160.42
1178.76	1375.13
1181.6	1498.5
1184.44	1513.87
1187.28	1469.9
1190.12	1330.61
1192.95	1167.31
1195.79	1017.35
1198.62	863.382
1201.45	738.085
1204.28	673.455
1207.11	615.492
1209.94	584.861
1212.77	535.565
1215.6	489.601
1218.42	479.638
1221.25	468.341
1224.07	431.044
1226.9	433.08
1229.72	401.117
1232.54	394.487
1235.36	385.19
1238.18	351.893
1241	354.596
1243.81	332.633
1246.63	321.336
1249.44	319.372
1252.26	324.742
1255.07	305.445
1257.88	316.815
1260.69	298.852
1263.5	313.555
1266.31	320.258
1269.12	305.628
1271.92	312.998
1274.73	321.034
1277.53	325.071
1280.34	311.774
1283.14	317.144
1285.94	335.847
1288.74	317.883
1291.54	328.586
1294.34	334.623
1297.14	328.659
1299.93	339.363
1302.73	358.732
1305.52	366.102
1308.31	365.472
1311.11	381.509
1313.9	410.878
1316.69	424.248
1319.48	436.951
1322.26	443.655
1325.05	435.024
1327.84	397.061
1330.62	374.431
1333.41	351.134
1336.19	357.17
1338.97	333.207
1341.75	303.243
1344.53	299.947
1347.31	303.316
1350.09	296.686
1352.87	287.389
1355.64	274.093
1358.42	272.129
1361.19	270.166
1363.96	272.869
1366.74	269.572
1369.51	261.608
1372.28	266.978
1375.04	259.015
1377.81	277.051
1380.58	271.088
1383.34	275.791
1386.11	271.827
1388.87	255.864
1391.63	276.567
1394.4	273.937
1397.16	270.64
1399.92	271.343
1402.67	296.046
1405.43	297.416
1408.19	295.453
1410.95	298.156
1413.7	299.526
1416.45	306.896
1419.21	293.599
1421.96	306.302
1424.71	331.005
1427.46	329.708
1430.21	327.745
1432.95	349.115
1435.7	351.818
1438.45	366.521
1441.19	384.557
1443.93	398.594
1446.68	403.964
1449.42	408
1452.16	436.703
1454.9	439.407
1457.64	460.776
1460.37	498.813
1463.11	480.849
1465.85	490.219
1468.58	504.256
1471.31	509.625
1474.05	488.329
1476.78	473.032
1479.51	435.735
1482.24	428.438
1484.97	406.475
1487.69	382.511
1490.42	373.881
1493.15	364.584
1495.87	339.287
1498.59	331.99
1501.32	327.36
1504.04	313.397
1506.76	299.433
1509.48	303.47
1512.2	299.506
1514.91	287.543
1517.63	276.913
1520.35	275.616
1523.06	276.319
1525.77	267.689
1528.49	267.059
1531.2	263.762
1533.91	271.798
1536.62	264.501
1539.33	270.538
1542.04	259.908
1544.74	257.278
1547.45	255.314
1550.15	247.351
1552.85	260.72
1555.56	261.424
1558.26	258.127
1560.96	272.163
1563.66	256.866
1566.36	260.903
1569.06	256.939
1571.75	255.643
1574.45	247.679
1577.14	253.049
1579.84	252.419
1582.53	250.455
1585.22	245.158
1587.91	239.195
1590.6	251.898
1593.29	237.268
1595.98	233.304
1598.67	247.341
1601.35	246.711
1604.04	238.747
1606.72	243.45
1609.4	236.154
1612.09	233.523
1614.77	230.227
1617.45	238.263
1620.13	233.633
1622.8	235.003
1625.48	234.373
1628.16	231.742
1630.83	247.112
1633.51	235.149
1636.18	229.185
1638.85	230.555
1641.52	229.258
1644.19	231.961
1646.86	243.331
1649.53	230.701
1652.2	228.738
1654.86	238.107
1657.53	233.477
1660.2	233.514
1662.86	234.884
1665.52	240.92
1668.18	240.957
1670.84	228.326
1673.5	227.029
1676.16	246.399
1678.82	241.769
1681.47	229.139
1684.13	238.509
1686.79	233.212
1689.44	247.248
1692.09	227.952
1694.74	241.321
1697.39	250.691
1700.04	234.728
1702.69	246.764
1705.34	241.467
1707.99	241.504
1710.64	253.54
1713.28	250.244
1715.92	243.613
1718.57	254.317
1721.21	248.353
1723.85	239.723
1726.49	251.759
1729.13	235.129
1731.77	249.166
1734.41	240.536
1737.04	242.572
1739.68	256.609
1742.31	243.312
1744.94	248.015
1747.58	255.385
1750.21	240.088
1752.84	247.458
1755.47	243.494
1758.1	238.197
1760.73	230.901
1763.35	244.937
1765.98	226.974
1768.6	237.01
1771.23	251.047
1773.85	247.083
1776.47	241.12
1779.09	243.823
1781.71	227.193
1784.33	251.229
1786.95	255.932
1789.57	249.302
1792.18	238.005
1794.8	247.375
1797.41	248.745
1800.03	246.115
1802.64	259.485
1805.25	249.521
1807.86	253.558
1810.47	253.594
1813.08	262.964
1815.69	267.667
1818.29	273.704
1820.9	265.74
1823.5	283.777
1826.11	285.813
1828.71	280.516
1831.31	273.219
1833.91	295.256
1836.51	313.292
1839.11	318.662
1841.71	304.699
1844.31	303.402
1846.9	317.438
1849.5	307.475
1852.09	310.845
1854.69	309.548
1857.28	322.251
1859.87	320.287
1862.46	305.657
1865.05	336.36
1867.64	357.064
1870.23	365.767
1872.81	371.137
1875.4	387.173
1877.98	405.21
1880.57	404.579
1883.15	408.616
1885.73	432.652
1888.31	440.689
1890.89	450.059
1893.47	470.095
1896.05	524.132
1898.63	507.502
1901.2	533.538
1903.78	530.908
1906.35	526.944
1908.93	520.981
1911.5	509.684
1914.07	489.721
1916.64	487.757
1919.21	461.127
1921.78	471.163
1924.35	462.533
1926.92	459.903
1929.48	454.606
1932.05	469.976
1934.61	485.346
1937.17	486.716
1939.74	505.419
1942.3	496.789
1944.86	488.825
1947.42	530.862
1949.98	526.898
1952.53	546.268
1955.09	532.971
1957.65	551.008
1960.2	547.044
1962.76	544.414
1965.31	564.451
1967.86	563.82
1970.41	569.19
1972.96	539.893
1975.51	567.93
1978.06	562.633
1980.61	530.669
1983.15	538.039
1985.7	532.076
1988.24	550.779
1990.79	548.816
1993.33	550.185
1995.87	576.889
1998.41	554.258
2000.95	581.628
2003.49	602.998
2006.03	607.701
2008.57	602.404
2011.1	592.441
2013.64	555.144
2016.17	559.847
2018.71	535.884
2021.24	501.254
2023.77	499.957
2026.3	468.66
2028.83	445.363
2031.36	436.733
2033.89	452.769
2036.41	438.139
2038.94	435.509
2041.47	460.212
2043.99	445.582
2046.51	438.952
2049.04	425.655
2051.56	416.358
2054.08	421.061
2056.6	426.431
2059.12	427.134
2061.63	427.837
2064.15	437.874
2066.67	429.91
2069.18	454.614
2071.7	436.65
2074.21	457.353
2076.72	463.39
2079.23	473.426
2081.74	459.463
2084.25	472.833
2086.76	468.869
2089.27	461.572
2091.78	472.942
2094.28	486.312
2096.79	498.348
2099.29	477.052
2101.8	477.755
2104.3	504.458
2106.8	502.494
2109.3	511.198
2111.8	525.901
2114.3	513.271
2116.79	531.307
2119.29	552.677
2121.79	556.713
2124.28	549.417
2126.78	550.786
2129.27	578.823
2131.76	570.859
2134.25	582.896
2136.74	588.266
2139.23	588.969
2141.72	595.672
2144.21	605.709
2146.7	617.745
2149.18	629.115
2151.67	613.818
2154.15	621.188
2156.63	623.891
2159.12	637.928
2161.6	645.964
2164.08	674.667
2166.56	651.37
2169.04	655.407
2171.51	668.11
2173.99	675.48
2176.47	673.516
2178.94	682.22
2181.42	682.923
2183.89	685.626
2186.36	646.996
2188.83	674.366
2191.3	683.735
2193.77	662.439
2196.24	668.475
2198.71	675.845
2201.18	677.215
2203.64	695.251
2206.11	690.621
2208.57	706.658
2211.04	752.027
2213.5	780.731
2215.96	773.434
2218.42	866.804
2220.88	881.507
2223.34	924.21
2225.8	949.58
2228.25	1008.95
2230.71	1064.32
2233.17	1163.69
2235.62	1204.39
2238.07	1303.76
2240.52	1415.8
2242.98	1523.84
2245.43	1651.21
2247.88	1821.91
2250.33	2007.28
2252.77	2144.65
2255.22	2238.68
2257.67	2228.05
2260.11	2096.09
2262.56	1894.13
2265	1717.5
2267.44	1518.2
2269.89	1337.57
2272.33	1210.94
2274.77	1082.31
2277.21	973.679
2279.65	909.049
2282.08	847.086
2284.52	800.456
2286.96	772.492
2289.39	730.529
2291.82	702.565
2294.26	659.268
2296.69	660.638
2299.12	650.008
2301.55	636.711
2303.98	621.414
2306.41	638.784
2308.83	632.821
2311.26	616.19
2313.69	652.894
2316.11	636.263
2318.54	646.967
2320.96	623.67
2323.38	605.04
2325.8	607.743
2328.22	607.113
2330.65	546.482
2333.06	547.186
2335.48	505.222
2337.9	513.259
2340.31	478.628
2342.73	469.332
2345.14	450.701
2347.56	440.738
2349.97	429.441
2352.38	433.478
2354.79	429.514
2357.2	414.217
2359.61	407.587
2362.02	404.29
2364.43	416.327
2366.83	400.363
2369.24	405.733
2371.64	403.77
2374.05	400.473
2376.45	383.842
2378.85	387.212
2381.26	394.582
2383.65	387.285
2386.06	402.655
2388.45	398.692
2390.85	416.728
2393.25	389.431
2395.64	406.134
2398.04	402.838
2400.43	397.541
2402.83	402.244
2405.22	406.947
2407.61	414.984
2410	418.353
2412.39	418.39
2414.78	417.093
2417.17	435.13
2419.56	447.166
2421.94	451.869
2424.33	448.572
2426.71	453.942
2429.1	465.312
2431.48	486.015
2433.86	464.718
2436.24	482.755
2438.62	508.125
2441	486.828
2443.38	520.864
2445.76	522.901
2448.14	542.271
2450.51	562.974
2452.89	577.677
2455.26	591.047
2457.63	599.083
2460.01	609.787
2462.38	601.156
2464.75	639.86
2467.12	651.229
2469.49	651.933
2471.86	687.302
2474.22	689.339
2476.59	694.709
2478.96	721.412
2481.32	708.782
2483.69	742.152
2486.05	740.188
2488.41	758.891
2490.77	762.261
2493.13	805.631
2495.49	779.667
2497.85	785.704
2500.21	773.74
2502.56	790.444
2504.92	767.147
2507.28	774.517
2509.63	753.886
2511.99	751.256
2514.34	765.959
2516.69	787.996
2519.04	806.032
2521.39	837.402
2523.74	868.105
2526.09	928.142
2528.44	995.512
2530.78	1057.55
2533.13	1129.58
2535.47	1241.62
2537.82	1303.66
2540.16	1475.03
2542.5	1578.4
2544.85	1659.1
2547.19	1831.14
2549.53	1888.51
2551.87	1955.88
2554.2	1969.25
2556.54	2004.62
2558.88	1947.32
2561.21	1874.02
2563.55	1798.66
2565.88	1708.55
2568.21	1598.96
2570.55	1453.17
2572.88	1342.17
2575.21	1245.13
2577.54	1164.11
2579.87	1072.43
2582.19	995.349
2584.52	907.065
2586.85	853.464
2589.17	793.035
2591.5	749.22
2593.82	718.229
2596.15	664.034
2598.47	629.531
2600.79	580.084
2603.11	554.576
2605.43	531.343
2607.75	512.918
2610.07	499.055
2612.38	463.129
2614.7	462.623
2617.01	443.335
2619.33	426.922
2621.64	427.559
2623.96	406.287
2626.27	402.129
2628.58	391.912
2630.89	385.606
2633.2	375.013
2635.51	372.825
2637.81	372.101
2640.12	359.363
2642.43	361.733
2644.73	360.764
2647.04	370.224
2649.34	351.08
2651.64	356.12
2653.94	352.43
2656.25	343.298
2658.55	339.364
2660.85	335.67
2663.14	331.033
2665.44	333.678
2667.74	328.051
2670.03	331.039
2672.33	319.328
2674.62	318.713
2676.92	319.245
2679.21	311.945
2681.5	309.004
2683.79	309.482
2686.08	317.493
2688.37	295.182
2690.66	298.715
2692.95	305.57
2695.24	298.827
2697.52	306.243
2699.81	288.871
2702.09	284.207
2704.37	289.65
2706.66	290.092
2708.94	289.031
2711.22	292.511
2713.5	291.23
2715.78	280.955
2718.06	285.995
2720.33	283.091
2722.61	274.844
2724.89	277.204
2727.16	275.8
2729.44	267.677
2731.71	267.181
2733.98	265.998
2736.26	267.865
2738.53	262.054
2740.8	267.333
2743.07	263.404
2745.33	256.238
2747.6	256.101
2749.87	250.286
2752.14	252.073
2754.4	244.081
2756.66	245.451
2758.93	235.716
2761.19	239.044
2763.45	238.583
2765.72	234.551
2767.98	233.724
2770.23	239.443
2772.49	239.753
2774.75	225.709
2777.01	229.207
2779.26	228.351
2781.52	225.143
2783.77	233.015
2786.03	223.688
2788.28	219.937
2790.53	223.489
2792.78	214.823
2795.03	216.808
2797.28	222.731
2797.45	223.018
2799.74	219.005
2802.03	227.658
2804.32	221.644
2806.6	213.63
2808.89	208.284
2811.17	218.937
2813.46	222.256
2815.74	219.576
2818.02	207.562
2820.3	209.549
2822.58	215.535
2824.86	207.521
2827.14	213.508
2829.42	227.494
2831.7	219.48
2833.98	208.8
2836.25	216.12
2838.53	209.439
2840.8	204.759
2843.08	218.079
2845.35	218.732
2847.62	200.718
2849.9	201.371
2852.17	212.024
2854.44	214.011
2856.71	210.664
2858.98	203.317
2861.24	208.636
2863.51	209.956
2865.78	203.276
2868.04	213.262
2870.31	217.915
2872.57	218.568
2874.84	207.221
2877.1	220.541
2879.36	215.861
2881.62	221.18
2883.89	211.167
2886.15	207.82
2888.41	217.806
2890.66	217.126
2892.92	205.779
2895.18	217.765
2897.44	217.085
2899.69	223.071
2901.95	218.391
2904.2	211.044
2906.46	227.697
2908.71	220.35
2910.96	213.003
2913.21	230.322
2915.46	222.976
2917.71	212.295
2919.96	227.615
2922.21	213.601
2924.46	216.921
2926.71	216.907
2928.95	226.227
2931.2	234.88
2933.44	229.533
2935.68	217.519
2937.93	220.839
2940.17	229.492
2942.41	234.812
2944.65	227.465
2946.89	230.784
2949.13	225.438
2951.37	229.424
2953.61	228.744
2955.85	236.063
2958.09	225.383
2960.32	223.369
2962.56	230.689
2964.79	221.342
2967.03	237.328
2969.26	221.315
2971.49	228.634
2973.72	223.287
2975.95	220.607
2978.18	229.26
2980.41	230.58
2982.64	229.9
2984.87	238.553
2987.1	226.539
2989.33	230.525
2991.55	226.512
2993.78	223.831
2996	235.151
2998.22	229.137
3000.45	233.124
3002.67	233.11
3004.89	227.096
3007.11	229.749
3009.33	232.402
3011.55	237.055
3013.77	236.375
3015.99	231.695
3018.21	232.348
3020.42	227.668
3022.64	230.987
3024.85	224.974
3027.07	230.96
3029.28	230.28
3031.49	230.266
3033.71	232.919
3035.92	231.572
3038.13	238.892
3040.34	219.545
3042.55	235.531
3044.76	226.184
3046.97	228.837
3049.17	234.157
3051.38	233.477
3053.58	230.796
3055.79	230.783
3058	233.436
3060.2	226.089
3062.4	234.742
3064.6	239.395
3066.8	230.048
3069.01	233.367
3071.21	237.354
3073.41	235.34
3075.6	221.993
3077.8	237.979
3080	248.632
3082.2	237.952
3084.39	238.605
3086.59	225.258
3088.78	243.245
3090.97	240.564
3093.17	230.551
3095.36	240.537
3097.55	245.857
3099.74	233.176
3101.93	241.163
3104.12	241.816
3106.31	252.469
3108.5	237.122
3110.68	240.441
3112.87	259.094
3115.06	257.747
3117.24	238.401
3119.43	245.72
3121.61	243.707
3123.79	239.026
3125.98	244.346
3128.16	244.999
3130.34	250.985
3132.52	262.305
3134.7	248.291
3136.88	240.944
3139.05	242.264
3141.23	262.917
3143.41	252.903
3145.58	261.556
3147.76	254.209
3149.93	249.529
3152.11	268.849
3154.28	258.835
3156.45	263.488
3158.63	258.808
3160.8	272.128
3162.97	269.447
3165.14	268.1
3167.3	272.753
3169.47	266.073
3171.64	280.059
3173.81	278.046
3175.97	284.032
3178.14	284.018
3180.3	285.338
3182.47	265.991
3184.63	286.644
3186.79	280.631
3188.95	294.617
3191.11	281.27
3193.28	301.923
3195.43	303.243
3197.59	296.562
3199.75	295.215
3201.91	313.868
3204.07	313.188
3206.22	325.174
3208.38	317.161
3210.53	320.48
3212.69	323.133
3214.84	327.786
3216.99	325.106
3219.14	333.093
3221.3	341.079
3223.45	332.399
3225.6	341.052
3227.75	341.705
3229.89	344.358
3232.04	352.344
3234.19	360.33
3236.34	360.317
3238.48	364.97
3240.62	360.289
3242.77	356.942
3244.91	360.929
3247.06	350.248
3249.2	344.901
3251.34	358.888
3253.48	346.874
3255.62	356.861
3257.76	363.514
3259.9	363.5
3262.04	365.486
3264.17	374.806
3266.31	379.459
3268.45	392.112
3270.58	392.098
3272.72	403.418
3274.85	401.404
3276.98	400.057
3279.12	407.377
3281.25	419.363
3283.38	414.017
3285.51	417.336
3287.64	425.323
3289.77	422.642
3291.89	436.629
3294.02	419.282
3296.15	437.935
3298.28	438.588
3300.4	429.907
3302.53	454.56
3304.65	452.547
3306.77	457.2
3308.9	470.519
3311.02	481.172
3313.14	488.492
3315.26	497.812
3317.38	495.798
3319.5	511.785
3321.62	513.771
3323.74	530.424
3325.85	513.077
3327.97	520.397
3330.08	518.383
3332.2	513.036
3334.31	495.689
3336.43	480.342
3338.54	486.995
3340.65	461.648
3342.77	472.301
3344.88	459.621
3346.99	433.607
3349.1	448.26
3351.21	447.58
3353.31	434.9
3355.42	442.886
3357.53	428.872
3359.63	416.859
3361.74	440.178
3363.84	409.498
3365.95	445.484
3368.05	418.804
3370.15	424.124
3372.26	432.777
3374.36	413.43
3376.46	424.749
3378.56	424.736
3380.66	430.722
3382.76	444.042
3384.85	435.362
3386.95	444.015
3389.05	453.334
3391.14	472.654
3393.24	475.974
3395.33	499.96
3397.43	494.613
3399.52	517.933
3401.61	566.586
3403.7	587.239
3405.79	613.225
3407.89	649.878
3409.98	711.865
3412.06	796.518
3414.15	835.171
3416.24	939.157
3418.33	1011.14
3420.41	1131.8
3422.5	1229.12
3424.58	1310.44
3426.67	1342.42
3428.75	1357.74
3430.83	1318.39
3432.92	1248.38
3435	1156.37
3437.08	1057.69
3439.16	992.34
3441.24	925.66
3443.32	846.313
3445.4	798.299
3447.47	749.619
3449.55	720.939
3451.63	698.258
3453.7	656.911
3455.78	629.564
3457.85	648.217
3459.92	591.537
3462	602.19
3464.07	566.176
3466.14	568.829
3468.21	551.482
3470.28	550.802
3472.35	520.122
3474.42	523.442
3476.49	522.761
3478.55	540.081
3480.62	530.067
3482.69	519.387
3484.75	522.04
3486.82	524.693
3488.88	514.013
3490.94	501.999
3493.01	521.985
3495.07	511.972
3497.13	503.291
3499.19	511.278
3501.25	539.264
3503.31	532.584
3505.37	528.57
3507.43	541.223
3509.48	572.543
3511.54	575.196
3513.59	598.516
3515.65	607.169
3517.7	625.822
3519.76	645.808
3521.81	655.794
3523.86	679.114
3525.92	661.767
3527.97	682.42
3530.02	667.073
3532.07	655.726
3534.12	644.379
3536.16	639.032
3538.21	624.352
3540.26	620.338
3542.31	603.658
3544.35	602.311
3546.4	601.631
3548.44	582.284
3550.49	590.937
3552.53	592.256
3554.57	578.909
3556.61	585.562
3558.65	586.882
3560.69	599.535
3562.73	582.855
3564.77	573.508
3566.81	568.827
3568.85	582.814
3570.89	595.467
3572.92	568.12
3574.96	592.106
3576.99	582.759
3579.03	600.746
3581.06	594.732
3583.1	602.718
3585.13	597.371
3587.16	602.691
3589.19	618.677
3591.22	632.664
3593.25	633.317
3595.28	623.303
3597.31	634.623
3599.34	641.276
3601.36	662.596
3603.39	663.915
3605.42	675.235
3607.44	694.555
3609.47	705.208
3611.49	735.861
3613.51	769.18
3615.53	788.5
3617.56	814.486
3619.58	857.139
3621.6	894.459
3623.62	934.445
3625.64	982.432
3627.66	1060.42
3629.67	1089.74
3631.69	1121.72
3633.71	1230.38
3635.72	1246.36
3637.74	1309.68
3639.75	1331.67
3641.77	1369.66
3643.78	1390.31
3645.79	1443.63
3647.8	1499.61
3649.82	1487.6
3651.83	1486.92
3653.84	1490.24
3655.85	1430.89
3657.85	1440.88
3659.86	1341.53
3661.87	1297.52
3663.88	1193.51
3665.88	1148.83
3667.89	1111.48
3669.89	1029.46
3671.9	980.118
3673.9	931.438
3675.9	912.757
3677.9	872.077
3679.91	863.397
3681.91	844.05
3683.91	830.703
3685.91	804.022
3687.9	776.675
3689.9	788.662
3691.9	797.982
3693.9	795.968
3695.89	771.954
3697.89	765.941
3699.88	769.927
3701.88	787.247
3703.87	765.9
3705.86	787.219
3707.86	785.872
3709.85	764.525
3711.84	797.178
3713.83	789.831
3715.82	802.484
3717.81	805.804
3719.8	821.79
3721.78	819.777
3723.77	851.763
3725.76	848.416
3727.74	857.736
3729.73	889.722
3731.71	900.375
3733.7	923.028
3735.68	925.681
3737.66	971.668
3739.64	972.987
3741.62	984.307
3743.61	1049.63
3745.58	1100.28
3747.56	1142.27
3749.54	1200.25
3751.52	1302.91
3753.5	1368.23
3755.47	1397.54
3757.45	1508.86
3759.43	1572.18
3761.4	1607.5
3763.37	1664.16
3765.35	1718.14
3767.32	1724.13
3769.29	1714.12
3771.26	1657.44
3773.24	1650.09
3775.21	1608.74
3777.17	1518.73
3779.14	1488.71
3781.11	1436.03
3783.08	1350.69
3785.05	1324.01
3787.01	1259.99
3788.98	1186.65
3790.94	1165.3
3792.91	1160.62
3794.87	1115.27
3796.83	1081.26
3798.8	1055.24
3800.76	1009.9
3802.72	995.884
3804.68	1002.54
3806.64	963.857
3808.6	968.51
3810.56	961.829
3812.51	945.149
3814.47	939.802
3816.43	907.122
3818.38	891.108
3820.34	917.095
3822.29	906.414
3824.25	909.734
3826.2	883.054
3828.16	905.04
3830.11	863.026
3832.06	875.013
3834.01	889.666
3835.96	866.319
3837.91	866.972
3839.86	864.291
3841.81	866.278
3843.75	852.931
3845.7	840.917
3847.65	853.57
3849.59	853.557
3851.54	836.21
3853.48	846.863
3855.43	848.849
3857.37	820.169
3859.31	867.488
3861.25	840.808
3863.2	869.461
3865.14	885.447
3867.08	883.434
3869.01	848.087
3870.95	856.74
3872.89	860.06
3874.83	878.046
3876.77	847.366
3878.7	886.685
3880.64	869.338
3882.57	857.991
3884.51	869.978
3886.44	865.297
3888.37	867.95
3890.31	887.937
3892.24	897.923
3894.17	893.243
3896.1	909.896
3898.03	895.215
3899.96	881.868
3901.89	899.855
3903.81	917.841
3905.74	885.161
3907.67	889.814
3909.59	887.8
3911.52	904.453
3913.44	887.773
3915.37	897.759
3917.29	913.746
3919.21	911.065
3921.14	899.052
3923.06	895.705
3924.98	913.024
3926.9	927.011
3928.82	920.997
3930.74	890.983
3932.66	927.637
3934.57	930.956
3936.49	937.609
3938.41	927.596
3940.32	914.249
3942.24	949.568
3944.15	944.888
3946.07	931.541
3947.98	940.194
3949.89	954.18
3951.8	946.167
3953.72	965.486
3955.63	948.139
3957.54	961.459
3959.45	950.112
3961.36	968.765
3963.26	962.085
3965.17	968.738
3967.08	986.724
3968.98	974.044
3970.89	1000.7
3972.79	968.017
3974.7	957.336
3976.6	990.656
3978.51	1009.98
3980.41	997.962
3982.31	997.948
3984.21	1019.93
3986.11	1017.92
3988.01	1023.24
3989.91	1020.56
3991.81	993.88
3993.71	1002.53
3995.61	1019.19
3997.51	1038.51
3999.4	1029.83
