##NAMES=PhenoxyResin
##MID=0020001
##IDEAL CHEMISTRY=C_x_O_x_H_x
##LOCALITY=x
##OWNER=WILEY
##SOURCE=x
##DESCRIPTION=clear pellets
##STATUS=clearly identified
##URL=x
##MEASURED CHEMISTRY=C_x_O_x_H_x
199.02, -4.39
199.45, -4.21
199.87, -3.83
200.29, -3.27
200.71, -2.34
201.14, -1.22
201.56, -0.29
201.98, 1.20
202.41, 1.94
202.83, 2.32
203.25, 2.13
203.68, 1.76
204.10, 0.83
204.52, 0.27
204.95, -0.29
205.37, -0.67
205.79, -1.22
206.22, -1.41
206.64, -1.78
207.06, -1.78
207.49, -1.78
207.91, -1.78
208.33, -1.97
208.76, -2.72
209.18, -3.09
209.60, -3.83
210.02, -4.21
210.45, -4.39
210.87, -4.21
211.29, -3.65
211.72, -2.72
212.14, -1.41
212.56, -0.29
212.99, 0.83
213.41, 1.94
213.83, 2.69
214.26, 3.62
214.68, 4.93
215.10, 6.23
215.53, 7.53
215.95, 9.21
216.37, 11.08
216.80, 12.94
217.22, 14.80
217.64, 16.67
218.06, 18.34
218.49, 20.02
218.91, 21.33
219.33, 22.44
219.76, 23.38
220.18, 24.12
220.60, 25.05
221.03, 25.80
221.45, 26.36
221.87, 26.54
222.30, 26.73
222.72, 26.92
223.14, 26.92
223.57, 27.10
223.99, 27.48
224.41, 27.66
224.84, 28.04
225.26, 28.22
225.68, 28.78
226.11, 29.71
226.53, 30.46
226.95, 31.20
227.37, 31.58
227.80, 31.76
228.22, 31.39
228.64, 31.02
229.07, 30.27
229.49, 29.90
229.91, 30.09
230.34, 30.64
230.76, 31.39
231.18, 32.51
231.61, 33.63
232.03, 35.12
232.45, 36.61
232.88, 38.10
233.30, 39.78
233.72, 41.08
234.15, 42.39
234.57, 44.06
234.99, 45.55
235.42, 47.60
235.84, 49.28
236.26, 50.77
236.68, 52.08
237.11, 52.82
237.53, 53.94
237.95, 54.69
238.38, 55.80
238.80, 56.74
239.22, 57.85
239.65, 58.97
240.07, 59.72
240.49, 60.46
240.92, 61.02
241.34, 61.21
241.76, 60.84
242.19, 60.09
242.61, 59.16
243.03, 58.04
243.46, 56.92
243.88, 56.55
244.30, 56.55
244.73, 56.92
245.15, 57.30
245.57, 57.67
245.99, 57.85
246.42, 57.48
246.84, 56.74
247.26, 55.80
247.69, 54.31
248.11, 52.64
248.53, 50.40
248.96, 48.16
249.38, 45.37
249.80, 42.57
250.23, 39.40
250.65, 36.05
251.07, 33.07
251.50, 30.27
251.92, 27.66
252.34, 25.99
252.77, 24.49
253.19, 23.56
253.61, 23.19
254.03, 23.00
254.46, 23.19
254.88, 23.19
255.30, 23.38
255.73, 23.19
256.15, 23.19
256.57, 22.82
257.00, 22.63
257.42, 22.26
257.84, 21.89
258.27, 21.70
258.69, 21.33
259.11, 21.33
259.54, 20.95
259.96, 20.21
260.38, 19.09
260.81, 17.60
261.23, 15.92
261.65, 14.06
262.08, 12.38
262.50, 10.89
262.92, 9.58
263.34, 9.03
263.77, 8.65
264.19, 8.84
264.61, 9.40
265.04, 10.14
265.46, 10.70
265.88, 11.08
266.31, 11.45
266.73, 11.82
267.15, 12.38
267.58, 12.94
268.00, 13.31
268.42, 13.87
268.85, 14.06
269.27, 13.31
269.69, 12.38
270.12, 10.89
270.54, 9.21
270.96, 7.35
271.39, 5.67
271.81, 4.55
272.23, 3.43
272.65, 2.88
273.08, 2.69
273.50, 2.69
273.92, 3.25
274.35, 3.99
274.77, 4.93
275.19, 5.48
275.62, 6.23
276.04, 6.79
276.46, 7.53
276.89, 8.28
277.31, 9.03
277.73, 9.40
278.16, 9.77
278.58, 9.58
279.00, 9.21
279.43, 8.28
279.85, 7.53
280.27, 6.42
280.69, 5.30
281.12, 4.18
281.54, 3.25
281.96, 2.32
282.39, 1.94
282.81, 1.76
283.23, 1.94
283.66, 2.32
284.08, 3.06
284.50, 3.62
284.93, 3.99
285.35, 4.37
285.77, 4.93
286.20, 5.86
286.62, 6.60
287.04, 7.53
287.47, 8.09
287.89, 8.28
288.31, 7.72
288.74, 6.79
289.16, 5.30
289.58, 3.43
290.00, 1.38
290.43, -0.29
290.85, -1.97
291.27, -2.90
291.70, -3.83
292.12, -4.02
292.54, -4.21
292.97, -4.39
293.39, -4.02
293.81, -3.46
294.24, -2.72
294.66, -1.97
295.08, -0.67
295.51, 0.64
295.93, 1.94
296.35, 3.06
296.78, 3.99
297.20, 4.93
297.62, 5.67
298.05, 6.04
298.47, 5.67
298.89, 5.11
299.31, 4.74
299.74, 4.37
300.16, 3.62
300.58, 3.25
301.01, 3.06
301.43, 3.06
301.85, 3.06
302.28, 2.69
302.70, 2.69
303.12, 3.25
303.55, 3.81
303.97, 4.55
304.39, 5.11
304.82, 5.11
305.24, 4.55
305.66, 3.81
306.09, 3.06
306.51, 2.50
306.93, 2.69
307.36, 3.06
307.78, 2.88
308.20, 2.50
308.62, 2.13
309.05, 1.76
309.47, 1.20
309.89, 1.20
310.32, 0.83
310.74, 0.83
311.16, 1.20
311.59, 1.20
312.01, 1.57
312.43, 2.13
312.86, 3.06
313.28, 3.99
313.70, 4.93
314.13, 5.67
314.55, 5.48
314.97, 5.11
315.40, 4.74
315.82, 4.55
316.24, 4.37
316.66, 4.93
317.09, 5.48
317.51, 5.67
317.93, 5.67
318.36, 5.67
318.78, 5.67
319.20, 5.86
319.63, 6.23
320.05, 6.60
320.47, 6.79
320.90, 7.16
321.32, 7.16
321.74, 7.35
322.17, 7.53
322.59, 8.09
323.01, 8.47
323.44, 8.84
323.86, 9.40
324.28, 10.33
324.71, 11.08
325.13, 11.82
325.55, 12.57
325.97, 12.94
326.40, 13.31
326.82, 13.50
327.24, 12.94
327.67, 12.38
328.09, 11.63
328.51, 10.89
328.94, 10.33
329.36, 9.77
329.78, 9.40
330.21, 9.03
330.63, 8.84
331.05, 8.47
331.48, 7.72
331.90, 7.53
332.32, 7.91
332.75, 8.47
333.17, 9.58
333.59, 11.45
334.02, 13.50
334.44, 15.73
334.86, 17.41
335.28, 18.72
335.71, 19.46
336.13, 19.09
336.55, 18.53
336.98, 17.60
337.40, 16.85
337.82, 16.29
338.25, 15.73
338.67, 15.73
339.09, 15.73
339.52, 16.11
339.94, 16.11
340.36, 16.11
340.79, 16.48
341.21, 16.67
341.63, 17.04
342.06, 17.60
342.48, 18.53
342.90, 19.46
343.33, 20.58
343.75, 21.89
344.17, 23.00
344.59, 23.75
345.02, 24.12
345.44, 24.31
345.86, 24.31
346.29, 24.31
346.71, 23.94
347.13, 23.94
347.56, 24.12
347.98, 24.31
348.40, 24.68
348.83, 24.68
349.25, 24.87
349.67, 25.43
350.10, 26.17
350.52, 26.73
350.94, 27.48
351.37, 27.85
351.79, 28.22
352.21, 28.78
352.63, 29.34
353.06, 29.53
353.48, 29.71
353.90, 29.71
354.33, 28.97
354.75, 28.59
355.17, 28.04
355.60, 27.66
356.02, 26.92
356.44, 25.80
356.87, 24.49
357.29, 23.00
357.71, 21.70
358.14, 20.21
358.56, 19.09
358.98, 17.97
359.41, 17.41
359.83, 16.85
360.25, 16.48
360.68, 16.11
361.10, 15.73
361.52, 15.36
361.94, 14.99
362.37, 14.62
362.79, 14.06
363.21, 13.13
363.64, 12.38
364.06, 11.63
364.48, 11.08
364.91, 10.70
365.33, 10.14
365.75, 9.40
366.18, 8.65
366.60, 7.91
367.02, 7.16
367.45, 6.79
367.87, 6.79
368.29, 7.35
368.72, 8.65
369.14, 10.33
369.56, 12.01
369.99, 14.06
370.41, 15.73
370.83, 17.41
371.25, 18.53
371.68, 19.28
372.10, 19.84
372.52, 20.58
372.95, 21.33
373.37, 21.89
373.79, 22.82
374.22, 23.38
374.64, 23.75
375.06, 23.94
375.49, 23.94
375.91, 23.56
376.33, 23.94
376.76, 24.49
377.18, 25.24
377.60, 26.36
378.03, 27.85
378.45, 29.15
378.87, 31.02
379.29, 32.69
379.72, 34.37
380.14, 36.05
380.56, 37.54
380.99, 38.66
381.41, 39.59
381.83, 40.71
382.26, 41.83
382.68, 43.32
383.10, 44.99
383.53, 47.04
383.95, 49.28
384.37, 52.08
384.80, 55.06
385.22, 58.41
385.64, 62.51
386.07, 66.80
386.49, 71.27
386.91, 75.93
387.34, 80.59
387.76, 85.25
388.18, 90.10
388.60, 95.13
389.03, 100.16
389.45, 105.19
389.87, 110.22
390.30, 114.70
390.72, 118.98
391.14, 122.15
391.57, 124.76
391.99, 127.00
392.41, 128.49
392.84, 129.79
393.26, 130.54
393.68, 131.28
394.11, 131.66
394.53, 131.47
394.95, 131.10
395.38, 130.17
395.80, 128.67
396.22, 126.44
396.65, 123.83
397.07, 120.47
397.49, 116.93
397.91, 113.21
398.34, 109.11
398.76, 104.63
399.18, 99.79
399.61, 95.13
400.03, 89.72
400.45, 84.13
400.88, 78.54
401.30, 72.76
401.72, 67.36
402.15, 62.70
402.57, 58.04
402.99, 54.31
403.42, 50.77
403.84, 48.16
404.26, 45.74
404.69, 44.06
405.11, 42.39
405.53, 41.08
405.96, 40.34
406.38, 39.59
406.80, 39.22
407.22, 39.40
407.65, 39.78
408.07, 39.96
408.49, 39.96
408.92, 40.34
409.34, 40.52
409.76, 40.89
410.19, 41.27
410.61, 42.01
411.03, 42.57
411.46, 43.13
411.88, 43.69
412.30, 44.25
412.73, 44.81
413.15, 45.18
413.57, 45.55
414.00, 45.18
414.42, 44.99
414.84, 44.25
415.26, 43.13
415.69, 42.20
416.11, 41.45
416.53, 41.08
416.96, 41.08
417.38, 40.34
417.80, 39.03
418.23, 36.61
418.65, 33.81
419.07, 30.83
419.50, 27.85
419.92, 25.24
420.34, 23.19
420.77, 21.51
421.19, 20.58
421.61, 20.21
422.04, 20.58
422.46, 20.21
422.88, 19.84
423.31, 19.28
423.73, 18.90
424.15, 18.53
424.57, 18.72
425.00, 19.28
425.42, 20.02
425.84, 20.95
426.27, 21.89
426.69, 23.00
427.11, 23.19
427.54, 22.26
427.96, 20.77
428.38, 19.28
428.81, 17.97
429.23, 17.41
429.65, 17.60
430.08, 18.34
430.50, 19.65
430.92, 21.14
431.35, 22.63
431.77, 23.94
432.19, 25.05
432.62, 25.61
433.04, 26.17
433.46, 26.73
433.88, 27.66
434.31, 28.59
434.73, 29.53
435.15, 29.90
435.58, 30.27
436.00, 30.46
436.42, 30.83
436.85, 31.02
437.27, 31.39
437.69, 31.39
438.12, 31.20
438.54, 31.02
438.96, 30.46
439.39, 30.09
439.81, 29.34
440.23, 28.41
440.66, 27.10
441.08, 25.43
441.50, 23.94
441.93, 22.26
442.35, 20.95
442.77, 20.21
443.19, 19.84
443.62, 20.21
444.04, 21.14
444.46, 21.51
444.89, 20.58
445.31, 19.09
445.73, 17.41
446.16, 15.36
446.58, 13.50
447.00, 11.26
447.43, 9.03
447.85, 7.16
448.27, 4.93
448.70, 2.88
449.12, 1.01
449.54, -0.67
449.97, -2.34
450.39, -3.27
450.81, -3.83
451.23, -3.83
451.66, -2.72
452.08, -0.67
452.50, 1.38
452.93, 4.74
453.35, 7.72
453.77, 10.89
454.20, 13.13
454.62, 14.99
455.04, 16.11
455.47, 17.04
455.89, 17.78
456.31, 17.97
456.74, 17.60
457.16, 17.41
457.58, 17.04
458.01, 16.67
458.43, 16.48
458.85, 16.48
459.28, 16.67
459.70, 17.04
460.12, 17.60
460.54, 18.34
460.97, 19.09
461.39, 20.02
461.81, 20.77
462.24, 21.89
462.66, 23.19
463.08, 24.68
463.51, 26.36
463.93, 28.22
464.35, 30.09
464.78, 31.58
465.20, 32.88
465.62, 33.63
466.05, 34.00
466.47, 34.00
466.89, 33.81
467.32, 34.00
467.74, 34.19
468.16, 34.56
468.59, 35.12
469.01, 34.74
469.43, 34.37
469.85, 33.81
470.28, 32.88
470.70, 32.51
471.12, 32.14
471.55, 32.32
471.97, 32.69
472.39, 33.25
472.82, 33.81
473.24, 34.56
473.66, 34.74
474.09, 34.93
474.51, 35.12
474.93, 35.49
475.36, 36.24
475.78, 36.79
476.20, 37.91
476.63, 38.66
477.05, 39.22
477.47, 39.78
477.89, 40.15
478.32, 40.15
478.74, 39.78
479.16, 38.66
479.59, 37.73
480.01, 36.61
480.43, 35.68
480.86, 35.12
481.28, 34.56
481.70, 34.19
482.13, 33.63
482.55, 32.88
482.97, 32.14
483.40, 31.58
483.82, 31.20
484.24, 31.20
484.67, 31.58
485.09, 31.95
485.51, 32.32
485.94, 32.51
486.36, 31.95
486.78, 31.58
487.20, 31.39
487.63, 31.02
488.05, 30.83
488.47, 30.64
488.90, 30.09
489.32, 29.71
489.74, 29.15
490.17, 28.59
490.59, 28.22
491.01, 28.04
491.44, 27.66
491.86, 27.66
492.28, 27.29
492.71, 27.29
493.13, 26.92
493.55, 27.10
493.98, 27.48
494.40, 28.22
494.82, 28.78
495.25, 28.78
495.67, 28.59
496.09, 28.04
496.51, 27.29
496.94, 26.54
497.36, 25.80
497.78, 25.05
498.21, 24.31
498.63, 23.75
499.05, 23.19
499.48, 22.82
499.90, 22.44
500.32, 22.26
500.75, 22.07
501.17, 22.07
501.59, 22.07
502.02, 22.07
502.44, 22.26
502.86, 22.26
503.29, 22.44
503.71, 23.00
504.13, 23.38
504.56, 23.38
504.98, 23.19
505.40, 22.63
505.82, 22.07
506.25, 21.33
506.67, 20.58
507.09, 19.65
507.52, 18.90
507.94, 17.78
508.36, 16.67
508.79, 15.55
509.21, 13.87
509.63, 12.19
510.06, 10.52
510.48, 9.03
510.90, 7.72
511.33, 6.23
511.75, 4.93
512.17, 3.62
512.60, 2.32
513.02, 1.57
513.44, 0.64
513.86, 0.45
514.29, 0.08
514.71, 0.08
515.13, 0.27
515.56, 0.45
515.98, 1.01
516.40, 1.38
516.83, 1.76
517.25, 2.50
517.67, 2.69
518.10, 2.50
518.52, 1.94
518.94, 1.20
519.37, 0.27
519.79, -0.29
520.21, -0.85
520.64, -1.22
521.06, -1.04
521.48, -1.04
521.91, -1.04
522.33, -0.67
522.75, -0.67
523.17, -0.29
523.60, 0.08
524.02, 0.45
524.44, 0.64
524.87, 1.38
525.29, 1.76
525.71, 2.32
526.14, 2.69
526.56, 2.88
526.98, 3.25
527.41, 3.43
527.83, 3.25
528.25, 2.50
528.68, 1.57
529.10, 0.27
529.52, -1.04
529.95, -1.97
530.37, -2.90
530.79, -3.46
531.22, -4.02
531.64, -4.77
532.06, -6.07
532.48, -7.19
532.91, -7.93
533.33, -8.87
533.75, -9.61
534.18, -10.17
534.60, -10.36
535.02, -10.36
535.45, -10.36
535.87, -9.98
536.29, -9.61
536.72, -8.87
537.14, -8.31
537.56, -8.12
537.99, -8.49
538.41, -8.49
538.83, -8.87
539.26, -8.49
539.68, -7.75
540.10, -7.00
540.52, -6.26
540.95, -5.88
541.37, -5.88
541.79, -5.88
542.22, -5.51
542.64, -5.51
543.06, -5.70
543.49, -6.07
543.91, -6.26
544.33, -6.26
544.76, -5.88
545.18, -5.70
545.60, -5.32
546.03, -5.14
546.45, -5.14
546.87, -5.70
547.30, -7.00
547.72, -7.75
548.14, -8.31
548.57, -8.31
548.99, -7.75
549.41, -6.82
549.83, -5.88
550.26, -4.95
550.68, -4.21
551.10, -3.65
551.53, -3.27
551.95, -2.72
552.37, -1.97
552.80, -1.22
553.22, -0.11
553.64, 0.64
554.07, 1.76
554.49, 2.13
554.91, 2.69
555.34, 2.69
555.76, 2.69
556.18, 2.50
556.61, 1.76
557.03, 1.01
557.45, 0.08
557.88, -0.67
558.30, -0.85
558.72, -0.48
559.14, 0.08
559.57, 0.64
559.99, 1.38
560.41, 1.20
560.84, 0.64
561.26, 0.08
561.68, -0.48
562.11, -0.85
562.53, -0.67
562.95, -0.29
563.38, -0.11
563.80, 0.08
564.22, 0.27
564.65, 0.45
565.07, 0.83
565.49, 1.38
565.92, 2.32
566.34, 3.25
566.76, 3.99
567.19, 5.30
567.61, 6.79
568.03, 8.84
568.45, 11.26
568.88, 13.50
569.30, 15.55
569.72, 16.85
570.15, 17.97
570.57, 17.97
570.99, 17.23
571.42, 16.29
571.84, 15.18
572.26, 13.87
572.69, 12.75
573.11, 11.45
573.53, 10.52
573.96, 9.21
574.38, 7.91
574.80, 6.79
575.23, 5.67
575.65, 4.93
576.07, 3.99
576.49, 3.81
576.92, 3.62
577.34, 3.43
577.76, 3.43
578.19, 3.43
578.61, 3.25
579.03, 2.88
579.46, 1.76
579.88, 0.45
580.30, -1.04
580.73, -2.90
581.15, -4.39
581.57, -5.70
582.00, -6.63
582.42, -7.19
582.84, -7.37
583.27, -7.75
583.69, -8.12
584.11, -8.49
584.54, -8.87
584.96, -8.87
585.38, -8.87
585.80, -8.68
586.23, -8.49
586.65, -8.12
587.07, -8.12
587.50, -8.12
587.92, -8.12
588.34, -8.12
588.77, -7.93
589.19, -8.12
589.61, -8.68
590.04, -8.87
590.46, -8.87
590.88, -8.68
591.31, -8.31
591.73, -7.75
592.15, -7.19
592.58, -7.00
593.00, -7.00
593.42, -7.00
593.85, -7.37
594.27, -7.93
594.69, -8.31
595.11, -9.05
595.54, -9.98
595.96, -10.54
596.38, -10.73
596.81, -11.10
597.23, -11.47
597.65, -11.66
598.08, -12.22
598.50, -12.78
598.92, -13.34
599.35, -13.90
599.77, -14.27
600.19, -14.08
600.62, -13.90
601.04, -13.52
601.46, -12.97
601.89, -12.22
602.31, -11.47
602.73, -10.73
603.16, -9.98
603.58, -9.42
604.00, -9.05
604.42, -8.87
604.85, -9.24
605.27, -9.80
605.69, -10.17
606.12, -10.54
606.54, -10.73
606.96, -11.10
607.39, -11.47
607.81, -11.66
608.23, -12.22
608.66, -12.59
609.08, -12.78
609.50, -12.78
609.93, -12.41
610.35, -11.66
610.77, -10.73
611.20, -9.42
611.62, -7.93
612.04, -6.63
612.46, -5.70
612.89, -4.95
613.31, -4.58
613.73, -4.95
614.16, -5.32
614.58, -6.07
615.00, -6.44
615.43, -6.63
615.85, -6.26
616.27, -6.44
616.70, -6.82
617.12, -7.00
617.54, -7.00
617.97, -6.82
618.39, -6.07
618.81, -4.95
619.24, -4.02
619.66, -2.90
620.08, -1.78
620.51, -0.48
620.93, 1.01
621.35, 2.69
621.77, 4.18
622.20, 5.67
622.62, 6.79
623.04, 7.72
623.47, 8.65
623.89, 9.40
624.31, 10.14
624.74, 10.89
625.16, 11.63
625.58, 12.38
626.01, 12.19
626.43, 11.63
626.85, 11.26
627.28, 10.89
627.70, 10.89
628.12, 11.26
628.55, 11.45
628.97, 11.82
629.39, 12.19
629.82, 13.13
630.24, 14.62
630.66, 17.04
631.08, 19.84
631.51, 23.56
631.93, 27.66
632.35, 33.07
632.78, 38.84
633.20, 46.30
633.62, 55.80
634.05, 66.99
634.47, 82.83
634.89, 99.97
635.32, 122.71
635.74, 146.38
636.16, 174.52
636.59, 203.97
637.01, 234.72
637.43, 265.28
637.86, 295.66
638.28, 322.68
638.70, 348.78
639.12, 368.72
639.55, 386.42
639.97, 397.79
640.39, 404.13
640.82, 405.62
641.24, 398.54
641.66, 389.59
642.09, 372.07
642.51, 353.62
642.93, 329.58
643.36, 304.61
643.78, 278.33
644.20, 252.24
644.63, 226.70
645.05, 203.78
645.47, 181.42
645.90, 162.78
646.32, 144.89
646.74, 130.35
647.17, 117.49
647.59, 106.31
648.01, 98.11
648.43, 90.66
648.86, 85.62
649.28, 80.78
649.70, 77.80
650.13, 75.00
650.55, 73.14
650.97, 72.20
651.40, 71.27
651.82, 70.90
652.24, 71.46
652.67, 72.02
653.09, 72.95
653.51, 74.25
653.94, 75.75
654.36, 77.24
654.78, 78.54
655.21, 79.66
655.63, 80.59
656.05, 81.34
656.48, 82.27
656.90, 83.39
657.32, 84.69
657.74, 86.18
658.17, 88.05
658.59, 89.35
659.01, 90.84
659.44, 91.96
659.86, 93.08
660.28, 94.76
660.71, 96.62
661.13, 98.67
661.55, 101.28
661.98, 104.07
662.40, 107.24
662.82, 110.41
663.25, 113.76
663.67, 117.31
664.09, 120.47
664.52, 123.08
664.94, 125.13
665.36, 126.07
665.79, 126.44
666.21, 126.07
666.63, 125.69
667.05, 124.95
667.48, 123.83
667.90, 122.52
668.32, 120.66
668.75, 118.24
669.17, 115.26
669.59, 112.27
670.02, 108.73
670.44, 105.01
670.86, 100.91
671.29, 97.18
671.71, 93.45
672.13, 89.91
672.56, 86.55
672.98, 83.20
673.40, 79.66
673.83, 76.49
674.25, 73.14
674.67, 69.78
675.09, 66.43
675.52, 63.07
675.94, 60.09
676.36, 57.11
676.79, 54.69
677.21, 52.45
677.63, 50.40
678.06, 48.35
678.48, 45.93
678.90, 43.69
679.33, 41.64
679.75, 39.96
680.17, 38.47
680.60, 37.54
681.02, 36.61
681.44, 36.24
681.87, 35.68
682.29, 35.12
682.71, 34.74
683.14, 34.37
683.56, 34.56
683.98, 35.49
684.40, 36.42
684.83, 37.35
685.25, 38.10
685.67, 38.66
686.10, 38.29
686.52, 38.10
686.94, 37.73
687.37, 37.35
687.79, 37.17
688.21, 36.79
688.64, 36.24
689.06, 35.49
689.48, 34.19
689.91, 32.69
690.33, 31.02
690.75, 29.34
691.18, 27.85
691.60, 26.17
692.02, 24.68
692.45, 23.38
692.87, 22.07
693.29, 20.95
693.71, 20.21
694.14, 19.46
694.56, 18.53
694.98, 17.78
695.41, 16.85
695.83, 16.11
696.25, 15.73
696.68, 15.73
697.10, 16.11
697.52, 16.48
697.95, 17.04
698.37, 17.23
698.79, 17.41
699.22, 17.23
699.64, 16.85
700.06, 17.04
700.49, 17.60
700.91, 18.16
701.33, 18.53
701.76, 18.34
702.18, 17.60
702.60, 16.48
703.02, 15.18
703.45, 14.06
703.87, 12.75
704.29, 11.45
704.72, 10.33
705.14, 9.21
705.56, 7.91
705.99, 6.60
706.41, 5.11
706.83, 3.99
707.26, 2.88
707.68, 2.32
708.10, 1.94
708.53, 1.57
708.95, 1.94
709.37, 1.94
709.80, 2.50
710.22, 2.88
710.64, 3.62
711.06, 3.99
711.49, 4.18
711.91, 3.43
712.33, 1.57
712.76, -0.29
713.18, -2.16
713.60, -3.46
714.03, -4.02
714.45, -4.21
714.87, -3.65
715.30, -2.90
715.72, -2.16
716.14, -1.22
716.57, 0.08
716.99, 1.57
717.41, 3.43
717.84, 5.86
718.26, 8.09
718.68, 10.33
719.11, 12.57
719.53, 14.80
719.95, 17.04
720.37, 19.46
720.80, 21.70
721.22, 22.82
721.64, 22.82
722.07, 22.07
722.49, 21.51
722.91, 20.95
723.34, 20.95
723.76, 21.70
724.18, 22.63
724.61, 23.56
725.03, 24.68
725.45, 25.80
725.88, 27.10
726.30, 28.78
726.72, 30.27
727.15, 32.14
727.57, 33.81
727.99, 35.49
728.42, 37.17
728.84, 38.84
729.26, 40.71
729.68, 43.13
730.11, 45.74
730.53, 48.54
730.95, 51.52
731.38, 54.50
731.80, 57.67
732.22, 61.02
732.65, 64.94
733.07, 69.04
733.49, 74.07
733.92, 79.10
734.34, 84.69
734.76, 90.28
735.19, 95.87
735.61, 100.72
736.03, 105.38
736.46, 108.36
736.88, 110.41
737.30, 111.53
737.72, 110.41
738.15, 108.36
738.57, 104.63
738.99, 100.91
739.42, 96.43
739.84, 91.59
740.26, 86.37
740.69, 80.59
741.11, 74.63
741.53, 67.92
741.96, 61.21
742.38, 54.50
742.80, 47.79
743.23, 41.83
743.65, 36.42
744.07, 31.76
744.50, 28.04
744.92, 24.68
745.34, 21.89
745.77, 19.28
746.19, 17.41
746.61, 15.73
747.03, 14.80
747.46, 14.06
747.88, 13.68
748.30, 13.87
748.73, 14.80
749.15, 15.92
749.57, 17.23
750.00, 18.90
750.42, 20.39
750.84, 21.70
751.27, 22.82
751.69, 23.94
752.11, 25.05
752.54, 26.17
752.96, 27.29
753.38, 28.22
753.81, 29.15
754.23, 29.90
754.65, 30.64
755.08, 31.39
755.50, 32.14
755.92, 32.88
756.34, 33.63
756.77, 34.37
757.19, 34.74
757.61, 34.37
758.04, 33.81
758.46, 33.07
758.88, 31.76
759.31, 30.64
759.73, 29.90
760.15, 29.15
760.58, 28.78
761.00, 29.15
761.42, 29.90
761.85, 30.64
762.27, 31.39
762.69, 31.95
763.12, 32.14
763.54, 32.51
763.96, 32.51
764.39, 32.51
764.81, 32.32
765.23, 31.76
765.65, 31.02
766.08, 30.27
766.50, 29.34
766.92, 28.22
767.35, 26.92
767.77, 25.80
768.19, 24.87
768.62, 24.31
769.04, 24.49
769.46, 24.87
769.89, 25.24
770.31, 25.61
770.73, 25.61
771.16, 25.24
771.58, 24.68
772.00, 23.75
772.43, 23.00
772.85, 21.89
773.27, 21.14
773.69, 20.21
774.12, 19.09
774.54, 17.97
774.96, 16.48
775.39, 14.99
775.81, 13.13
776.23, 11.63
776.66, 10.14
777.08, 9.21
777.50, 8.47
777.93, 8.09
778.35, 8.47
778.77, 9.77
779.20, 11.08
779.62, 12.38
780.04, 13.68
780.47, 15.18
780.89, 16.29
781.31, 16.85
781.74, 17.04
782.16, 16.67
782.58, 16.11
783.00, 15.55
783.43, 14.80
783.85, 14.43
784.27, 13.68
784.70, 12.94
785.12, 12.38
785.54, 12.01
785.97, 11.63
786.39, 11.63
786.81, 12.01
787.24, 12.19
787.66, 13.13
788.08, 14.06
788.51, 15.55
788.93, 17.41
789.35, 19.65
789.78, 22.07
790.20, 24.87
790.62, 27.10
791.05, 29.15
791.47, 30.46
791.89, 31.76
792.31, 33.07
792.74, 34.93
793.16, 37.17
793.58, 40.15
794.01, 43.32
794.43, 47.23
794.85, 51.33
795.28, 56.18
795.70, 61.02
796.12, 66.43
796.55, 72.20
796.97, 77.98
797.39, 83.95
797.82, 90.10
798.24, 96.81
798.66, 103.70
799.09, 111.16
799.51, 118.80
799.93, 126.81
800.36, 135.38
800.78, 143.96
801.20, 153.46
801.62, 162.78
802.05, 173.22
802.47, 183.84
802.89, 195.02
803.32, 206.76
803.74, 218.88
804.16, 231.92
804.59, 245.15
805.01, 259.13
805.43, 273.30
805.86, 287.83
806.28, 302.00
806.70, 315.79
807.13, 328.65
807.55, 341.13
807.97, 351.94
808.40, 362.19
808.82, 370.39
809.24, 377.29
809.66, 382.51
810.09, 386.05
810.51, 388.47
810.93, 389.59
811.36, 389.03
811.78, 387.91
812.20, 386.42
812.63, 384.74
813.05, 383.25
813.47, 381.95
813.90, 381.95
814.32, 383.25
814.74, 386.05
815.17, 389.40
815.59, 394.99
816.01, 401.14
816.44, 408.79
816.86, 417.36
817.28, 426.49
817.71, 436.00
818.13, 445.31
818.55, 454.07
818.97, 462.27
819.40, 468.98
819.82, 474.76
820.24, 479.23
820.67, 482.40
821.09, 484.64
821.51, 485.76
821.94, 485.01
822.36, 482.96
822.78, 480.35
823.21, 475.88
823.63, 470.66
824.05, 464.70
824.48, 457.43
824.90, 449.97
825.32, 442.33
825.75, 434.32
826.17, 426.86
826.59, 419.41
827.02, 411.95
827.44, 405.06
827.86, 397.98
828.28, 391.27
828.71, 384.74
829.13, 378.59
829.55, 372.82
829.98, 367.78
830.40, 363.31
830.82, 359.40
831.25, 356.04
831.67, 352.88
832.09, 349.71
832.52, 346.54
832.94, 343.00
833.36, 339.64
833.79, 335.73
834.21, 331.82
834.63, 328.09
835.06, 324.73
835.48, 321.19
835.90, 318.21
836.32, 315.04
836.75, 311.87
837.17, 308.71
837.59, 305.35
838.02, 301.62
838.44, 297.71
838.86, 293.24
839.29, 288.58
839.71, 283.17
840.13, 277.58
840.56, 271.25
840.98, 265.47
841.40, 259.50
841.83, 253.54
842.25, 247.58
842.67, 241.61
843.10, 235.65
843.52, 229.87
843.94, 224.09
844.37, 218.69
844.79, 213.66
845.21, 208.63
845.63, 203.97
846.06, 199.12
846.48, 194.65
846.90, 189.80
847.33, 184.96
847.75, 179.37
848.17, 173.40
848.60, 166.32
849.02, 159.05
849.44, 151.04
849.87, 143.21
850.29, 135.57
850.71, 128.67
851.14, 122.34
851.56, 116.37
851.98, 110.60
852.41, 105.38
852.83, 99.97
853.25, 95.50
853.68, 91.40
854.10, 88.23
854.52, 85.06
854.94, 82.45
855.37, 80.22
855.79, 78.17
856.21, 76.30
856.64, 74.44
857.06, 72.39
857.48, 70.15
857.91, 67.73
858.33, 65.31
858.75, 62.89
859.18, 60.84
859.60, 58.97
860.02, 57.67
860.45, 56.55
860.87, 55.99
861.29, 55.62
861.72, 55.62
862.14, 55.99
862.56, 56.18
862.99, 56.36
863.41, 56.55
863.83, 56.55
864.25, 56.55
864.68, 56.74
865.10, 56.36
865.52, 56.36
865.95, 55.99
866.37, 55.99
866.79, 55.99
867.22, 56.36
867.64, 57.11
868.06, 57.85
868.49, 58.79
868.91, 59.90
869.33, 60.84
869.76, 62.14
870.18, 63.82
870.60, 65.50
871.03, 67.17
871.45, 68.85
871.87, 70.15
872.29, 71.46
872.72, 71.83
873.14, 72.20
873.56, 72.20
873.99, 71.83
874.41, 71.46
874.83, 71.09
875.26, 70.71
875.68, 69.97
876.10, 69.60
876.53, 69.22
876.95, 68.85
877.37, 68.29
877.80, 67.55
878.22, 66.80
878.64, 66.05
879.07, 65.50
879.49, 65.12
879.91, 65.31
880.34, 65.50
880.76, 66.05
881.18, 66.80
881.60, 67.55
882.03, 68.10
882.45, 68.66
882.87, 68.85
883.30, 69.04
883.72, 69.41
884.14, 69.41
884.57, 69.41
884.99, 69.04
885.41, 69.04
885.84, 68.66
886.26, 68.10
886.68, 67.36
887.11, 66.05
887.53, 64.94
887.95, 63.82
888.38, 62.70
888.80, 61.95
889.22, 61.58
889.65, 61.40
890.07, 61.21
890.49, 61.02
890.91, 60.65
891.34, 60.09
891.76, 59.35
892.18, 58.97
892.61, 58.41
893.03, 57.67
893.45, 56.74
893.88, 55.25
894.30, 53.38
894.72, 51.33
895.15, 49.47
895.57, 47.42
895.99, 45.37
896.42, 43.32
896.84, 41.27
897.26, 39.40
897.69, 38.10
898.11, 36.98
898.53, 36.42
898.95, 36.61
899.38, 36.98
899.80, 37.54
900.22, 37.91
900.65, 38.66
901.07, 39.59
901.49, 40.71
901.92, 41.83
902.34, 42.94
902.76, 43.69
903.19, 44.06
903.61, 43.88
904.03, 43.13
904.46, 42.39
904.88, 41.27
905.30, 40.52
905.73, 39.40
906.15, 38.66
906.57, 37.91
907.00, 37.54
907.42, 36.98
907.84, 37.35
908.26, 38.29
908.69, 39.22
909.11, 40.89
909.53, 42.94
909.96, 45.37
910.38, 48.16
910.80, 51.33
911.23, 54.69
911.65, 58.23
912.07, 62.14
912.50, 66.05
912.92, 70.15
913.34, 74.07
913.77, 78.17
914.19, 81.90
914.61, 85.44
915.04, 88.23
915.46, 90.84
915.88, 92.33
916.31, 93.64
916.73, 94.20
917.15, 93.64
917.57, 92.33
918.00, 90.28
918.42, 88.05
918.84, 84.88
919.27, 81.52
919.69, 77.61
920.11, 73.70
920.54, 69.41
920.96, 65.50
921.38, 61.40
921.81, 57.85
922.23, 54.87
922.65, 52.64
923.08, 50.96
923.50, 50.03
923.92, 49.65
924.35, 49.47
924.77, 49.84
925.19, 50.40
925.62, 51.52
926.04, 52.82
926.46, 54.69
926.88, 56.55
927.31, 58.41
927.73, 60.28
928.15, 62.14
928.58, 64.19
929.00, 66.24
929.42, 68.29
929.85, 70.53
930.27, 72.20
930.69, 74.07
931.12, 75.56
931.54, 77.05
931.96, 78.35
932.39, 79.66
932.81, 81.15
933.23, 82.83
933.66, 84.69
934.08, 86.55
934.50, 88.42
934.92, 90.28
935.35, 91.40
935.77, 92.71
936.19, 93.64
936.62, 94.01
937.04, 94.38
937.46, 94.57
937.89, 94.76
938.31, 95.13
938.73, 94.76
939.16, 94.38
939.58, 93.82
940.00, 92.33
940.43, 90.66
940.85, 88.42
941.27, 85.81
941.70, 82.83
942.12, 80.03
942.54, 77.05
942.97, 74.44
943.39, 71.83
943.81, 69.22
944.23, 66.43
944.66, 63.26
945.08, 60.09
945.50, 56.55
945.93, 53.19
946.35, 49.84
946.77, 47.23
947.20, 44.62
947.62, 42.94
948.04, 41.64
948.47, 40.71
948.89, 40.15
949.31, 39.03
949.74, 38.10
950.16, 37.17
950.58, 36.24
951.01, 35.68
951.43, 35.12
951.85, 34.56
952.28, 33.81
952.70, 33.44
953.12, 32.69
953.54, 32.32
953.97, 31.76
954.39, 31.02
954.81, 30.27
955.24, 29.53
955.66, 28.97
956.08, 28.22
956.51, 28.04
956.93, 28.04
957.35, 28.04
957.78, 27.85
958.20, 27.29
958.62, 26.36
959.05, 25.05
959.47, 23.75
959.89, 22.44
960.32, 21.33
960.74, 20.21
961.16, 19.09
961.59, 17.78
962.01, 16.29
962.43, 14.99
962.85, 13.87
963.28, 12.75
963.70, 11.63
964.12, 10.70
964.55, 9.96
964.97, 9.58
965.39, 9.03
965.82, 9.03
966.24, 8.47
966.66, 7.91
967.09, 6.98
967.51, 5.86
967.93, 4.55
968.36, 3.62
968.78, 2.50
969.20, 1.94
969.63, 1.38
970.05, 0.83
970.47, 0.83
970.89, 0.64
971.32, 0.83
971.74, 1.01
972.16, 1.38
972.59, 1.76
973.01, 2.32
973.43, 2.69
973.86, 3.06
974.28, 3.43
974.70, 3.81
975.13, 3.99
975.55, 4.18
975.97, 4.18
976.40, 4.55
976.82, 4.74
977.24, 5.11
977.67, 5.48
978.09, 6.23
978.51, 6.60
978.94, 6.79
979.36, 6.98
979.78, 6.79
980.20, 6.79
980.63, 6.60
981.05, 6.23
981.47, 5.86
981.90, 5.67
982.32, 5.30
982.74, 5.48
983.17, 6.23
983.59, 6.60
984.01, 6.98
984.44, 7.53
984.86, 7.91
985.28, 8.09
985.71, 9.03
986.13, 10.14
986.55, 11.45
986.98, 12.94
987.40, 13.68
987.82, 14.80
988.25, 14.99
988.67, 15.18
989.09, 14.99
989.51, 14.99
989.94, 15.18
990.36, 14.99
990.78, 14.80
991.21, 14.62
991.63, 14.24
992.05, 14.24
992.48, 14.06
992.90, 13.87
993.32, 13.68
993.75, 13.13
994.17, 12.57
994.59, 12.38
995.02, 12.19
995.44, 12.94
995.86, 13.68
996.29, 14.62
996.71, 15.55
997.13, 15.92
997.55, 16.11
997.98, 16.11
998.40, 16.48
998.82, 17.23
999.25, 18.34
999.67, 20.21
1000.09, 22.26
1000.52, 24.68
1000.94, 27.10
1001.36, 29.15
1001.79, 30.83
1002.21, 32.32
1002.63, 33.07
1003.06, 34.19
1003.48, 35.30
1003.90, 36.61
1004.33, 38.29
1004.75, 39.96
1005.17, 41.45
1005.60, 42.39
1006.02, 42.94
1006.44, 42.76
1006.86, 42.01
1007.29, 41.08
1007.71, 39.78
1008.13, 38.66
1008.56, 37.73
1008.98, 37.91
1009.40, 38.47
1009.83, 39.22
1010.25, 40.52
1010.67, 41.45
1011.10, 42.01
1011.52, 42.20
1011.94, 42.57
1012.37, 42.57
1012.79, 42.76
1013.21, 42.94
1013.64, 43.13
1014.06, 43.13
1014.48, 42.76
1014.91, 42.39
1015.33, 41.64
1015.75, 40.71
1016.17, 39.40
1016.60, 37.91
1017.02, 36.42
1017.44, 34.74
1017.87, 33.25
1018.29, 31.39
1018.71, 29.53
1019.14, 27.29
1019.56, 25.05
1019.98, 23.19
1020.41, 21.33
1020.83, 19.65
1021.25, 18.16
1021.68, 16.67
1022.10, 15.36
1022.52, 14.24
1022.95, 13.50
1023.37, 12.75
1023.79, 12.01
1024.22, 11.63
1024.64, 11.63
1025.06, 11.82
1025.48, 12.38
1025.91, 13.31
1026.33, 14.62
1026.75, 15.73
1027.18, 17.04
1027.60, 18.34
1028.02, 19.09
1028.45, 20.02
1028.87, 20.77
1029.29, 22.07
1029.72, 23.19
1030.14, 24.31
1030.56, 25.61
1030.99, 26.54
1031.41, 27.10
1031.83, 27.85
1032.26, 28.59
1032.68, 29.34
1033.10, 29.90
1033.52, 29.90
1033.95, 30.27
1034.37, 30.27
1034.79, 30.46
1035.22, 31.02
1035.64, 31.76
1036.06, 32.69
1036.49, 33.63
1036.91, 34.93
1037.33, 36.24
1037.76, 37.35
1038.18, 38.47
1038.60, 39.78
1039.03, 40.71
1039.45, 41.27
1039.87, 41.45
1040.30, 41.08
1040.72, 40.89
1041.14, 40.52
1041.57, 40.34
1041.99, 40.15
1042.41, 40.15
1042.83, 39.96
1043.26, 39.96
1043.68, 39.59
1044.10, 39.59
1044.53, 39.78
1044.95, 40.15
1045.37, 40.52
1045.80, 41.08
1046.22, 41.83
1046.64, 42.39
1047.07, 42.76
1047.49, 42.94
1047.91, 42.39
1048.34, 41.27
1048.76, 39.59
1049.18, 36.98
1049.61, 34.37
1050.03, 31.39
1050.45, 28.41
1050.88, 25.61
1051.30, 23.19
1051.72, 21.14
1052.14, 19.46
1052.57, 18.16
1052.99, 17.41
1053.41, 17.60
1053.84, 17.78
1054.26, 18.53
1054.68, 19.65
1055.11, 20.95
1055.53, 22.44
1055.95, 24.31
1056.38, 26.73
1056.80, 28.59
1057.22, 30.46
1057.65, 31.76
1058.07, 32.14
1058.49, 31.95
1058.92, 31.20
1059.34, 30.27
1059.76, 28.78
1060.19, 27.48
1060.61, 26.54
1061.03, 25.80
1061.45, 25.61
1061.88, 25.43
1062.30, 25.80
1062.72, 26.17
1063.15, 26.92
1063.57, 27.66
1063.99, 28.41
1064.42, 29.15
1064.84, 30.09
1065.26, 31.02
1065.69, 31.95
1066.11, 33.07
1066.53, 33.63
1066.96, 34.19
1067.38, 34.56
1067.80, 34.74
1068.23, 34.74
1068.65, 34.37
1069.07, 33.63
1069.49, 32.69
1069.92, 31.76
1070.34, 31.20
1070.76, 30.83
1071.19, 30.64
1071.61, 31.02
1072.03, 31.39
1072.46, 31.76
1072.88, 31.76
1073.30, 32.14
1073.73, 32.14
1074.15, 32.51
1074.57, 33.07
1075.00, 33.44
1075.42, 33.81
1075.84, 34.19
1076.27, 34.74
1076.69, 35.49
1077.11, 36.05
1077.54, 36.61
1077.96, 37.17
1078.38, 36.98
1078.80, 36.98
1079.23, 37.17
1079.65, 37.73
1080.07, 39.22
1080.50, 40.71
1080.92, 43.13
1081.34, 45.55
1081.77, 48.16
1082.19, 50.59
1082.61, 53.19
1083.04, 55.80
1083.46, 58.60
1083.88, 61.58
1084.31, 64.38
1084.73, 66.80
1085.15, 69.04
1085.58, 70.90
1086.00, 72.39
1086.42, 74.07
1086.85, 75.00
1087.27, 75.93
1087.69, 75.93
1088.11, 75.19
1088.54, 74.07
1088.96, 72.95
1089.38, 71.46
1089.81, 70.15
1090.23, 68.66
1090.65, 67.73
1091.08, 66.80
1091.50, 66.05
1091.92, 65.68
1092.35, 65.31
1092.77, 64.75
1093.19, 64.19
1093.62, 63.45
1094.04, 62.70
1094.46, 62.14
1094.89, 61.95
1095.31, 62.51
1095.73, 63.07
1096.15, 64.56
1096.58, 65.87
1097.00, 67.55
1097.42, 69.04
1097.85, 70.71
1098.27, 72.39
1098.69, 74.25
1099.12, 76.68
1099.54, 79.29
1099.96, 83.01
1100.39, 87.11
1100.81, 91.59
1101.23, 97.36
1101.66, 103.33
1102.08, 109.85
1102.50, 116.56
1102.93, 123.64
1103.35, 131.10
1103.77, 139.30
1104.20, 148.06
1104.62, 156.82
1105.04, 166.69
1105.46, 176.38
1105.89, 187.38
1106.31, 198.56
1106.73, 211.24
1107.16, 224.84
1107.58, 239.38
1108.00, 255.40
1108.43, 271.99
1108.85, 289.88
1109.27, 307.96
1109.70, 326.97
1110.12, 345.98
1110.54, 364.62
1110.97, 382.69
1111.39, 400.59
1111.81, 415.68
1112.24, 430.22
1112.66, 440.65
1113.08, 449.97
1113.51, 454.82
1113.93, 456.87
1114.35, 454.26
1114.77, 447.92
1115.20, 440.28
1115.62, 428.35
1116.04, 415.50
1116.47, 399.65
1116.89, 382.88
1117.31, 365.18
1117.74, 346.54
1118.16, 328.09
1118.58, 309.82
1119.01, 291.56
1119.43, 274.23
1119.85, 257.08
1120.28, 241.24
1120.70, 226.14
1121.12, 211.98
1121.55, 198.75
1121.97, 185.89
1122.39, 174.15
1122.82, 162.97
1123.24, 152.72
1123.66, 143.21
1124.08, 134.45
1124.51, 126.62
1124.93, 119.36
1125.35, 113.58
1125.78, 107.99
1126.20, 103.70
1126.62, 99.41
1127.05, 96.43
1127.47, 93.64
1127.89, 91.21
1128.32, 89.16
1128.74, 87.49
1129.16, 86.18
1129.59, 85.06
1130.01, 83.95
1130.43, 82.83
1130.86, 81.71
1131.28, 80.22
1131.70, 78.54
1132.12, 76.30
1132.55, 73.88
1132.97, 71.46
1133.39, 69.22
1133.82, 67.17
1134.24, 65.31
1134.66, 63.45
1135.09, 61.95
1135.51, 60.28
1135.93, 59.16
1136.36, 58.23
1136.78, 57.67
1137.20, 57.30
1137.63, 56.92
1138.05, 56.74
1138.47, 56.92
1138.90, 57.30
1139.32, 57.67
1139.74, 58.60
1140.17, 59.72
1140.59, 61.40
1141.01, 62.89
1141.43, 64.38
1141.86, 65.12
1142.28, 65.68
1142.70, 66.24
1143.13, 66.80
1143.55, 67.73
1143.97, 68.85
1144.40, 70.15
1144.82, 70.90
1145.24, 71.83
1145.67, 72.39
1146.09, 73.14
1146.51, 73.88
1146.94, 74.63
1147.36, 75.19
1147.78, 75.56
1148.21, 75.75
1148.63, 75.56
1149.05, 75.19
1149.48, 74.25
1149.90, 73.14
1150.32, 71.65
1150.74, 69.97
1151.17, 67.73
1151.59, 65.12
1152.01, 62.51
1152.44, 59.90
1152.86, 57.67
1153.28, 55.43
1153.71, 53.57
1154.13, 51.52
1154.55, 49.47
1154.98, 47.23
1155.40, 44.99
1155.82, 42.94
1156.25, 41.08
1156.67, 39.78
1157.09, 38.10
1157.52, 36.61
1157.94, 35.12
1158.36, 33.25
1158.79, 31.39
1159.21, 29.34
1159.63, 27.66
1160.05, 25.99
1160.48, 24.68
1160.90, 23.75
1161.32, 22.82
1161.75, 22.07
1162.17, 21.51
1162.59, 21.14
1163.02, 20.77
1163.44, 20.58
1163.86, 20.58
1164.29, 20.58
1164.71, 20.95
1165.13, 21.33
1165.56, 22.07
1165.98, 22.82
1166.40, 23.75
1166.83, 24.49
1167.25, 25.43
1167.67, 26.54
1168.09, 27.85
1168.52, 29.53
1168.94, 31.39
1169.36, 33.44
1169.79, 35.86
1170.21, 38.29
1170.63, 40.71
1171.06, 43.32
1171.48, 46.11
1171.90, 48.72
1172.33, 51.33
1172.75, 54.31
1173.17, 57.11
1173.60, 60.65
1174.02, 64.38
1174.44, 69.22
1174.87, 74.07
1175.29, 80.22
1175.71, 86.37
1176.14, 93.08
1176.56, 100.53
1176.98, 108.36
1177.40, 117.68
1177.83, 127.18
1178.25, 138.18
1178.67, 149.73
1179.10, 162.78
1179.52, 176.20
1179.94, 190.36
1180.37, 204.90
1180.79, 219.81
1181.21, 234.35
1181.64, 248.88
1182.06, 262.49
1182.48, 275.91
1182.91, 288.02
1183.33, 299.57
1183.75, 310.38
1184.18, 319.33
1184.60, 327.90
1185.02, 333.68
1185.45, 339.08
1185.87, 341.69
1186.29, 342.81
1186.71, 341.51
1187.14, 338.71
1187.56, 334.80
1187.98, 328.09
1188.41, 321.19
1188.83, 311.32
1189.25, 301.06
1189.68, 288.76
1190.10, 275.53
1190.52, 261.55
1190.95, 246.46
1191.37, 231.36
1191.79, 215.89
1192.22, 200.61
1192.64, 185.89
1193.06, 171.54
1193.49, 157.75
1193.91, 145.26
1194.33, 133.15
1194.75, 122.90
1195.18, 113.02
1195.60, 104.63
1196.02, 96.81
1196.45, 90.28
1196.87, 84.50
1197.29, 79.29
1197.72, 74.63
1198.14, 70.34
1198.56, 66.61
1198.99, 63.26
1199.41, 60.65
1199.83, 58.41
1200.26, 57.11
1200.68, 56.36
1201.10, 55.80
1201.53, 55.43
1201.95, 55.25
1202.37, 55.25
1202.80, 55.25
1203.22, 55.62
1203.64, 56.18
1204.06, 57.48
1204.49, 58.97
1204.91, 60.84
1205.33, 62.70
1205.76, 64.75
1206.18, 66.80
1206.60, 68.85
1207.03, 71.09
1207.45, 73.70
1207.87, 76.30
1208.30, 79.47
1208.72, 82.83
1209.14, 86.74
1209.57, 90.84
1209.99, 95.31
1210.41, 99.60
1210.84, 103.89
1211.26, 107.99
1211.68, 112.09
1212.11, 116.37
1212.53, 120.66
1212.95, 125.32
1213.37, 129.98
1213.80, 134.82
1214.22, 139.67
1214.64, 144.33
1215.07, 148.80
1215.49, 153.09
1215.91, 157.00
1216.34, 160.92
1216.76, 164.46
1217.18, 167.44
1217.61, 170.42
1218.03, 173.03
1218.45, 175.45
1218.88, 177.50
1219.30, 179.37
1219.72, 181.04
1220.15, 182.72
1220.57, 184.77
1220.99, 186.82
1221.42, 189.43
1221.84, 191.85
1222.26, 194.28
1222.68, 196.89
1223.11, 199.49
1223.53, 202.29
1223.95, 205.27
1224.38, 208.25
1224.80, 211.42
1225.22, 214.59
1225.65, 217.39
1226.07, 220.18
1226.49, 222.79
1226.92, 225.21
1227.34, 227.82
1227.76, 230.24
1228.19, 232.30
1228.61, 234.16
1229.03, 235.65
1229.46, 236.58
1229.88, 237.33
1230.30, 237.89
1230.72, 237.70
1231.15, 236.95
1231.57, 235.65
1231.99, 233.79
1232.42, 231.36
1232.84, 229.13
1233.26, 226.33
1233.69, 223.16
1234.11, 219.44
1234.53, 215.71
1234.96, 211.79
1235.38, 208.44
1235.80, 204.90
1236.23, 202.29
1236.65, 199.31
1237.07, 197.07
1237.50, 194.83
1237.92, 192.60
1238.34, 190.55
1238.77, 188.50
1239.19, 186.63
1239.61, 184.77
1240.03, 183.09
1240.46, 181.42
1240.88, 179.93
1241.30, 178.62
1241.73, 177.50
1242.15, 176.38
1242.57, 175.27
1243.00, 173.96
1243.42, 172.28
1243.84, 171.17
1244.27, 170.23
1244.69, 169.86
1245.11, 169.68
1245.54, 169.86
1245.96, 169.86
1246.38, 169.68
1246.81, 169.49
1247.23, 169.68
1247.65, 169.86
1248.08, 170.42
1248.50, 170.98
1248.92, 171.17
1249.34, 171.54
1249.77, 171.73
1250.19, 171.91
1250.61, 172.28
1251.04, 172.66
1251.46, 172.66
1251.88, 172.66
1252.31, 172.28
1252.73, 172.28
1253.15, 171.91
1253.58, 171.91
1254.00, 171.73
1254.42, 171.54
1254.85, 171.17
1255.27, 170.42
1255.69, 169.49
1256.12, 168.00
1256.54, 166.69
1256.96, 165.39
1257.38, 163.71
1257.81, 162.03
1258.23, 159.80
1258.65, 157.56
1259.08, 154.77
1259.50, 151.97
1259.92, 149.36
1260.35, 146.57
1260.77, 143.77
1261.19, 140.42
1261.62, 137.43
1262.04, 134.08
1262.46, 131.10
1262.89, 128.12
1263.31, 124.76
1263.73, 121.59
1264.16, 117.86
1264.58, 114.51
1265.00, 111.16
1265.43, 107.80
1265.85, 105.01
1266.27, 102.40
1266.69, 99.79
1267.12, 97.74
1267.54, 95.69
1267.96, 94.01
1268.39, 92.33
1268.81, 91.03
1269.23, 89.91
1269.66, 89.16
1270.08, 88.23
1270.50, 87.30
1270.93, 86.37
1271.35, 85.44
1271.77, 84.50
1272.20, 83.57
1272.62, 82.27
1273.04, 80.78
1273.47, 79.10
1273.89, 77.61
1274.31, 76.12
1274.74, 75.19
1275.16, 74.63
1275.58, 74.63
1276.00, 74.81
1276.43, 75.37
1276.85, 76.30
1277.27, 77.05
1277.70, 78.17
1278.12, 79.29
1278.54, 80.40
1278.97, 81.52
1279.39, 82.64
1279.81, 83.39
1280.24, 84.32
1280.66, 85.25
1281.08, 86.00
1281.51, 86.93
1281.93, 87.67
1282.35, 88.42
1282.78, 89.35
1283.20, 90.66
1283.62, 92.15
1284.05, 93.82
1284.47, 96.06
1284.89, 98.48
1285.31, 101.65
1285.74, 104.82
1286.16, 108.17
1286.58, 111.53
1287.01, 114.51
1287.43, 117.31
1287.85, 119.73
1288.28, 122.15
1288.70, 124.39
1289.12, 126.44
1289.55, 128.67
1289.97, 130.54
1290.39, 132.59
1290.82, 134.27
1291.24, 136.13
1291.66, 137.81
1292.09, 139.86
1292.51, 142.09
1292.93, 144.70
1293.35, 147.12
1293.78, 149.73
1294.20, 152.53
1294.62, 155.51
1295.05, 158.31
1295.47, 160.92
1295.89, 163.15
1296.32, 165.20
1296.74, 166.88
1297.16, 168.00
1297.59, 169.12
1298.01, 169.49
1298.43, 170.05
1298.86, 170.05
1299.28, 169.86
1299.70, 169.30
1300.13, 168.74
1300.55, 167.44
1300.97, 165.95
1301.40, 164.27
1301.82, 162.22
1302.24, 160.17
1302.66, 157.93
1303.09, 155.51
1303.51, 153.27
1303.93, 151.04
1304.36, 148.43
1304.78, 145.63
1305.20, 142.84
1305.63, 140.04
1306.05, 137.43
1306.47, 135.57
1306.90, 133.71
1307.32, 132.40
1307.74, 131.47
1308.17, 130.54
1308.59, 129.98
1309.01, 129.79
1309.44, 129.42
1309.86, 129.42
1310.28, 129.23
1310.71, 128.30
1311.13, 127.18
1311.55, 125.69
1311.97, 123.83
1312.40, 121.59
1312.82, 119.36
1313.24, 116.56
1313.67, 113.76
1314.09, 110.22
1314.51, 106.31
1314.94, 102.21
1315.36, 97.92
1315.78, 93.45
1316.21, 88.98
1316.63, 84.69
1317.05, 80.40
1317.48, 76.30
1317.90, 72.39
1318.32, 68.66
1318.75, 64.75
1319.17, 61.58
1319.59, 58.23
1320.02, 55.43
1320.44, 52.82
1320.86, 50.59
1321.28, 48.35
1321.71, 46.67
1322.13, 44.99
1322.55, 43.69
1322.98, 42.76
1323.40, 42.01
1323.82, 41.45
1324.25, 40.71
1324.67, 39.96
1325.09, 38.84
1325.52, 37.73
1325.94, 36.79
1326.36, 35.68
1326.79, 35.12
1327.21, 34.37
1327.63, 33.81
1328.06, 33.44
1328.48, 33.07
1328.90, 32.32
1329.32, 31.76
1329.75, 31.20
1330.17, 30.64
1330.59, 30.09
1331.02, 29.71
1331.44, 29.34
1331.86, 28.78
1332.29, 28.78
1332.71, 28.78
1333.13, 28.97
1333.56, 29.15
1333.98, 29.15
1334.40, 28.97
1334.83, 28.59
1335.25, 28.22
1335.67, 27.66
1336.10, 27.10
1336.52, 26.92
1336.94, 26.92
1337.37, 26.92
1337.79, 26.92
1338.21, 26.92
1338.63, 27.10
1339.06, 27.10
1339.48, 26.92
1339.90, 26.73
1340.33, 26.36
1340.75, 25.99
1341.17, 25.43
1341.60, 25.05
1342.02, 25.05
1342.44, 24.68
1342.87, 24.31
1343.29, 24.12
1343.71, 23.56
1344.14, 22.82
1344.56, 22.26
1344.98, 21.14
1345.41, 20.21
1345.83, 19.28
1346.25, 18.53
1346.68, 17.97
1347.10, 17.97
1347.52, 18.16
1347.94, 18.90
1348.37, 19.28
1348.79, 19.65
1349.21, 20.21
1349.64, 20.58
1350.06, 21.14
1350.48, 21.51
1350.91, 21.89
1351.33, 21.89
1351.75, 21.51
1352.18, 20.77
1352.60, 20.02
1353.02, 19.09
1353.45, 18.16
1353.87, 17.23
1354.29, 16.67
1354.72, 16.29
1355.14, 15.92
1355.56, 15.36
1355.98, 15.18
1356.41, 15.18
1356.83, 14.99
1357.25, 14.99
1357.68, 14.99
1358.10, 14.99
1358.52, 14.99
1358.95, 15.36
1359.37, 16.29
1359.79, 17.41
1360.22, 18.53
1360.64, 19.84
1361.06, 20.77
1361.49, 21.33
1361.91, 22.07
1362.33, 22.82
1362.76, 23.38
1363.18, 23.94
1363.60, 24.49
1364.03, 25.24
1364.45, 25.61
1364.87, 25.80
1365.29, 26.17
1365.72, 25.99
1366.14, 25.80
1366.56, 25.24
1366.99, 24.68
1367.41, 23.94
1367.83, 23.00
1368.26, 22.44
1368.68, 21.51
1369.10, 21.14
1369.53, 20.95
1369.95, 20.77
1370.37, 20.77
1370.80, 20.95
1371.22, 20.95
1371.64, 21.33
1372.07, 21.70
1372.49, 22.07
1372.91, 22.44
1373.34, 22.63
1373.76, 22.82
1374.18, 22.82
1374.60, 22.82
1375.03, 22.82
1375.45, 23.19
1375.87, 23.38
1376.30, 23.75
1376.72, 24.12
1377.14, 24.49
1377.57, 24.87
1377.99, 25.24
1378.41, 25.80
1378.84, 26.54
1379.26, 27.48
1379.68, 28.59
1380.11, 29.34
1380.53, 30.46
1380.95, 31.39
1381.38, 32.88
1381.80, 34.19
1382.22, 35.68
1382.65, 37.17
1383.07, 38.47
1383.49, 39.59
1383.91, 40.71
1384.34, 41.27
1384.76, 41.64
1385.18, 42.01
1385.61, 42.39
1386.03, 42.57
1386.45, 42.94
1386.88, 42.76
1387.30, 42.39
1387.72, 41.83
1388.15, 41.45
1388.57, 41.08
1388.99, 40.52
1389.42, 39.59
1389.84, 38.66
1390.26, 37.35
1390.69, 36.05
1391.11, 35.12
1391.53, 34.56
1391.95, 34.37
1392.38, 34.00
1392.80, 34.00
1393.22, 33.63
1393.65, 33.25
1394.07, 32.51
1394.49, 31.95
1394.92, 31.76
1395.34, 31.39
1395.76, 31.39
1396.19, 31.39
1396.61, 31.20
1397.03, 30.83
1397.46, 30.46
1397.88, 30.09
1398.30, 29.90
1398.73, 29.71
1399.15, 29.71
1399.57, 29.53
1400.00, 29.53
1400.42, 29.53
1400.84, 29.53
1401.26, 29.53
1401.69, 29.90
1402.11, 29.90
1402.53, 29.90
1402.96, 29.71
1403.38, 29.34
1403.80, 28.59
1404.23, 28.04
1404.65, 28.04
1405.07, 28.22
1405.50, 28.59
1405.92, 29.15
1406.34, 29.90
1406.77, 30.64
1407.19, 31.39
1407.61, 32.32
1408.04, 33.44
1408.46, 34.93
1408.88, 36.05
1409.31, 37.17
1409.73, 37.91
1410.15, 39.03
1410.57, 39.78
1411.00, 40.71
1411.42, 41.45
1411.84, 42.01
1412.27, 42.20
1412.69, 41.83
1413.11, 41.27
1413.54, 40.34
1413.96, 39.96
1414.38, 39.96
1414.81, 40.52
1415.23, 41.08
1415.65, 41.64
1416.08, 42.20
1416.50, 42.57
1416.92, 42.57
1417.35, 42.01
1417.77, 41.64
1418.19, 41.08
1418.62, 40.15
1419.04, 39.03
1419.46, 38.29
1419.88, 37.17
1420.31, 36.05
1420.73, 34.56
1421.15, 32.69
1421.58, 30.64
1422.00, 28.59
1422.42, 26.73
1422.85, 25.05
1423.27, 23.94
1423.69, 23.00
1424.12, 22.63
1424.54, 22.07
1424.96, 21.89
1425.39, 21.51
1425.81, 21.14
1426.23, 20.77
1426.66, 20.39
1427.08, 20.02
1427.50, 19.84
1427.92, 19.84
1428.35, 20.02
1428.77, 20.77
1429.19, 21.33
1429.62, 22.26
1430.04, 22.63
1430.46, 22.82
1430.89, 22.82
1431.31, 23.19
1431.73, 23.94
1432.16, 24.87
1432.58, 25.80
1433.00, 26.92
1433.43, 28.04
1433.85, 29.53
1434.27, 30.83
1434.70, 32.32
1435.12, 34.00
1435.54, 35.68
1435.97, 37.91
1436.39, 40.15
1436.81, 42.94
1437.23, 45.93
1437.66, 49.47
1438.08, 53.38
1438.50, 57.67
1438.93, 62.51
1439.35, 67.36
1439.77, 72.20
1440.20, 77.24
1440.62, 81.71
1441.04, 86.37
1441.47, 90.66
1441.89, 94.76
1442.31, 98.48
1442.74, 102.02
1443.16, 105.19
1443.58, 107.99
1444.01, 110.60
1444.43, 112.46
1444.85, 114.14
1445.28, 115.07
1445.70, 114.88
1446.12, 113.95
1446.54, 112.83
1446.97, 111.53
1447.39, 110.22
1447.81, 108.92
1448.24, 107.99
1448.66, 107.06
1449.08, 106.50
1449.51, 106.31
1449.93, 106.31
1450.35, 106.50
1450.78, 106.87
1451.20, 107.61
1451.62, 108.55
1452.05, 110.04
1452.47, 112.27
1452.89, 114.70
1453.32, 117.86
1453.74, 121.41
1454.16, 124.95
1454.58, 128.67
1455.01, 132.40
1455.43, 136.32
1455.85, 139.67
1456.28, 143.58
1456.70, 147.31
1457.12, 151.04
1457.55, 154.95
1457.97, 158.87
1458.39, 162.59
1458.82, 166.51
1459.24, 170.61
1459.66, 174.52
1460.09, 178.25
1460.51, 181.42
1460.93, 184.21
1461.36, 186.63
1461.78, 188.13
1462.20, 189.62
1462.63, 190.18
1463.05, 190.36
1463.47, 189.99
1463.89, 188.87
1464.32, 187.57
1464.74, 185.70
1465.16, 183.47
1465.59, 180.67
1466.01, 178.06
1466.43, 174.52
1466.86, 170.98
1467.28, 167.44
1467.70, 163.53
1468.13, 159.80
1468.55, 155.70
1468.97, 151.78
1469.40, 148.06
1469.82, 144.14
1470.24, 140.60
1470.67, 136.87
1471.09, 133.15
1471.51, 129.42
1471.94, 125.51
1472.36, 122.15
1472.78, 118.42
1473.20, 114.70
1473.63, 110.97
1474.05, 106.87
1474.47, 102.77
1474.90, 98.48
1475.32, 94.57
1475.74, 90.66
1476.17, 86.55
1476.59, 82.64
1477.01, 78.73
1477.44, 74.63
1477.86, 70.53
1478.28, 66.43
1478.71, 62.70
1479.13, 59.72
1479.55, 56.74
1479.98, 54.31
1480.40, 51.89
1480.82, 49.28
1481.25, 46.86
1481.67, 44.62
1482.09, 42.39
1482.51, 40.15
1482.94, 37.73
1483.36, 35.12
1483.78, 32.14
1484.21, 29.15
1484.63, 26.36
1485.05, 24.12
1485.48, 21.89
1485.90, 20.02
1486.32, 18.34
1486.75, 16.85
1487.17, 15.36
1487.59, 14.06
1488.02, 13.31
1488.44, 13.13
1488.86, 13.13
1489.29, 13.50
1489.71, 14.06
1490.13, 14.06
1490.55, 13.68
1490.98, 12.94
1491.40, 12.19
1491.82, 11.08
1492.25, 10.14
1492.67, 9.03
1493.09, 8.09
1493.52, 7.16
1493.94, 6.42
1494.36, 6.42
1494.79, 6.60
1495.21, 7.16
1495.63, 7.53
1496.06, 7.91
1496.48, 7.91
1496.90, 8.09
1497.33, 8.47
1497.75, 8.84
1498.17, 9.21
1498.60, 9.96
1499.02, 10.52
1499.44, 11.08
1499.86, 10.89
1500.29, 10.70
1500.71, 10.33
1501.13, 10.14
1501.56, 9.77
1501.98, 9.77
1502.40, 9.96
1502.83, 10.33
1503.25, 11.26
1503.67, 12.01
1504.10, 13.13
1504.52, 14.24
1504.94, 15.36
1505.37, 16.67
1505.79, 17.41
1506.21, 18.53
1506.64, 19.46
1507.06, 20.39
1507.48, 21.14
1507.91, 21.89
1508.33, 22.44
1508.75, 23.19
1509.17, 23.94
1509.60, 24.68
1510.02, 25.24
1510.44, 25.99
1510.87, 26.36
1511.29, 26.73
1511.71, 26.92
1512.14, 26.73
1512.56, 25.99
1512.98, 25.24
1513.41, 24.31
1513.83, 23.00
1514.25, 22.07
1514.68, 21.51
1515.10, 20.95
1515.52, 20.77
1515.95, 20.39
1516.37, 19.84
1516.79, 18.90
1517.22, 17.78
1517.64, 16.48
1518.06, 15.36
1518.48, 14.43
1518.91, 13.87
1519.33, 13.50
1519.75, 13.50
1520.18, 13.50
1520.60, 13.31
1521.02, 12.57
1521.45, 11.45
1521.87, 10.33
1522.29, 8.84
1522.72, 7.72
1523.14, 6.79
1523.56, 6.23
1523.99, 6.42
1524.41, 6.60
1524.83, 6.79
1525.26, 6.79
1525.68, 6.60
1526.10, 6.23
1526.52, 5.86
1526.95, 5.11
1527.37, 4.74
1527.79, 4.74
1528.22, 4.93
1528.64, 4.93
1529.06, 5.30
1529.49, 5.30
1529.91, 5.48
1530.33, 5.48
1530.76, 5.11
1531.18, 4.93
1531.60, 4.55
1532.03, 4.55
1532.45, 4.18
1532.87, 4.18
1533.30, 4.18
1533.72, 4.37
1534.14, 4.55
1534.57, 4.55
1534.99, 4.55
1535.41, 4.55
1535.83, 4.18
1536.26, 4.18
1536.68, 4.18
1537.10, 3.99
1537.53, 3.62
1537.95, 3.25
1538.37, 2.88
1538.80, 2.13
1539.22, 1.94
1539.64, 1.94
1540.07, 2.13
1540.49, 2.50
1540.91, 2.69
1541.34, 3.06
1541.76, 3.06
1542.18, 3.06
1542.61, 2.69
1543.03, 2.69
1543.45, 2.88
1543.88, 3.06
1544.30, 3.06
1544.72, 2.69
1545.14, 2.50
1545.57, 1.94
1545.99, 1.20
1546.41, 0.27
1546.84, -0.48
1547.26, -1.41
1547.68, -2.16
1548.11, -2.72
1548.53, -3.09
1548.95, -3.27
1549.38, -3.65
1549.80, -4.02
1550.22, -4.02
1550.65, -4.39
1551.07, -4.21
1551.49, -4.02
1551.92, -4.02
1552.34, -3.65
1552.76, -3.27
1553.18, -2.53
1553.61, -1.60
1554.03, -0.48
1554.45, 0.45
1554.88, 1.57
1555.30, 2.50
1555.72, 3.62
1556.15, 4.55
1556.57, 5.67
1556.99, 6.98
1557.42, 7.91
1557.84, 8.65
1558.26, 9.21
1558.69, 8.84
1559.11, 8.47
1559.53, 7.91
1559.96, 7.16
1560.38, 6.98
1560.80, 7.35
1561.23, 7.72
1561.65, 8.09
1562.07, 8.65
1562.49, 8.84
1562.92, 9.03
1563.34, 9.21
1563.76, 9.58
1564.19, 10.52
1564.61, 11.08
1565.03, 12.19
1565.46, 13.13
1565.88, 14.43
1566.30, 15.92
1566.73, 17.23
1567.15, 18.53
1567.57, 19.46
1568.00, 20.58
1568.42, 21.70
1568.84, 22.82
1569.27, 23.75
1569.69, 24.87
1570.11, 25.99
1570.54, 27.10
1570.96, 28.04
1571.38, 29.15
1571.80, 30.83
1572.23, 32.14
1572.65, 34.00
1573.07, 36.42
1573.50, 39.40
1573.92, 42.76
1574.34, 46.49
1574.77, 50.96
1575.19, 55.62
1575.61, 61.21
1576.04, 66.80
1576.46, 73.32
1576.88, 80.03
1577.31, 86.93
1577.73, 94.20
1578.15, 101.65
1578.58, 108.55
1579.00, 115.07
1579.42, 120.85
1579.85, 126.25
1580.27, 131.28
1580.69, 135.76
1581.11, 139.67
1581.54, 142.84
1581.96, 145.63
1582.38, 146.94
1582.81, 147.12
1583.23, 146.01
1583.65, 144.14
1584.08, 141.35
1584.50, 137.62
1584.92, 133.33
1585.35, 128.30
1585.77, 123.27
1586.19, 117.86
1586.62, 112.09
1587.04, 106.31
1587.46, 100.72
1587.89, 95.31
1588.31, 90.47
1588.73, 85.81
1589.15, 82.45
1589.58, 79.29
1590.00, 77.61
1590.42, 76.12
1590.85, 75.56
1591.27, 75.75
1591.69, 76.49
1592.12, 77.61
1592.54, 78.91
1592.96, 81.15
1593.39, 83.57
1593.81, 87.11
1594.23, 90.84
1594.66, 95.13
1595.08, 99.60
1595.50, 104.26
1595.93, 109.66
1596.35, 115.26
1596.77, 121.78
1597.20, 128.86
1597.62, 137.25
1598.04, 146.01
1598.46, 155.88
1598.89, 166.69
1599.31, 177.88
1599.73, 190.55
1600.16, 203.59
1600.58, 218.32
1601.00, 233.41
1601.43, 249.81
1601.85, 267.15
1602.27, 284.85
1602.70, 303.86
1603.12, 323.06
1603.54, 343.00
1603.97, 362.94
1604.39, 382.88
1604.81, 402.82
1605.24, 422.39
1605.66, 440.47
1606.08, 458.17
1606.51, 473.27
1606.93, 487.62
1607.35, 498.99
1607.77, 509.05
1608.20, 515.95
1608.62, 520.61
1609.04, 523.40
1609.47, 522.84
1609.89, 519.68
1610.31, 513.90
1610.74, 507.37
1611.16, 498.06
1611.58, 488.18
1612.01, 476.62
1612.43, 463.58
1612.85, 449.97
1613.28, 435.25
1613.70, 420.34
1614.12, 404.87
1614.55, 389.40
1614.97, 373.75
1615.39, 357.91
1615.81, 341.88
1616.24, 325.48
1616.66, 309.45
1617.08, 293.42
1617.51, 277.40
1617.93, 261.93
1618.35, 246.65
1618.78, 231.74
1619.20, 217.39
1619.62, 203.41
1620.05, 190.73
1620.47, 178.25
1620.89, 167.44
1621.32, 156.82
1621.74, 147.12
1622.16, 138.18
1622.59, 129.79
1623.01, 122.15
1623.43, 114.70
1623.86, 108.17
1624.28, 102.02
1624.70, 96.43
1625.12, 91.40
1625.55, 86.93
1625.97, 82.83
1626.39, 78.91
1626.82, 75.19
1627.24, 71.65
1627.66, 68.29
1628.09, 64.75
1628.51, 61.58
1628.93, 58.60
1629.36, 55.99
1629.78, 53.57
1630.20, 51.33
1630.63, 49.47
1631.05, 47.42
1631.47, 45.55
1631.90, 43.69
1632.32, 42.20
1632.74, 40.34
1633.17, 38.84
1633.59, 37.35
1634.01, 36.05
1634.43, 35.12
1634.86, 34.37
1635.28, 33.81
1635.70, 33.25
1636.13, 32.51
1636.55, 31.58
1636.97, 30.46
1637.40, 28.97
1637.82, 27.66
1638.24, 25.99
1638.67, 24.68
1639.09, 23.38
1639.51, 22.07
1639.94, 20.95
1640.36, 19.84
1640.78, 18.72
1641.21, 17.78
1641.63, 16.85
1642.05, 16.29
1642.48, 15.73
1642.90, 15.36
1643.32, 15.36
1643.74, 15.73
1644.17, 16.29
1644.59, 16.85
1645.01, 17.60
1645.44, 18.34
1645.86, 19.09
1646.28, 19.46
1646.71, 19.46
1647.13, 19.09
1647.55, 18.34
1647.98, 17.78
1648.40, 16.85
1648.82, 15.92
1649.25, 15.18
1649.67, 14.06
1650.09, 12.94
1650.52, 12.19
1650.94, 11.08
1651.36, 10.14
1651.78, 9.58
1652.21, 8.84
1652.63, 8.47
1653.05, 8.28
1653.48, 8.28
1653.90, 8.28
1654.32, 8.47
1654.75, 8.65
1655.17, 8.84
1655.59, 9.21
1656.02, 9.21
1656.44, 9.03
1656.86, 9.03
1657.29, 9.03
1657.71, 9.21
1658.13, 9.58
1658.56, 9.96
1658.98, 10.33
1659.40, 10.89
1659.83, 11.26
1660.25, 11.63
1660.67, 11.82
1661.09, 12.57
1661.52, 12.94
1661.94, 13.31
1662.36, 13.68
1662.79, 13.31
1663.21, 12.94
1663.63, 12.38
1664.06, 11.63
1664.48, 11.08
1664.90, 10.70
1665.33, 10.33
1665.75, 9.96
1666.17, 9.58
1666.60, 9.03
1667.02, 8.47
1667.44, 8.28
1667.87, 7.91
1668.29, 7.91
1668.71, 7.91
1669.14, 7.91
1669.56, 8.09
1669.98, 8.09
1670.40, 8.28
1670.83, 8.28
1671.25, 8.09
1671.67, 7.53
1672.10, 6.79
1672.52, 6.04
1672.94, 5.30
1673.37, 4.93
1673.79, 4.93
1674.21, 5.11
1674.64, 5.67
1675.06, 6.04
1675.48, 5.67
1675.91, 5.48
1676.33, 4.93
1676.75, 4.18
1677.18, 3.43
1677.60, 2.69
1678.02, 2.32
1678.45, 1.94
1678.87, 1.94
1679.29, 1.76
1679.71, 1.76
1680.14, 1.57
1680.56, 1.57
1680.98, 1.20
1681.41, 0.83
1681.83, 0.64
1682.25, 0.45
1682.68, 0.45
1683.10, 0.83
1683.52, 1.01
1683.95, 1.57
1684.37, 2.13
1684.79, 2.69
1685.22, 3.25
1685.64, 3.62
1686.06, 3.81
1686.49, 3.81
1686.91, 3.62
1687.33, 3.43
1687.75, 3.06
1688.18, 2.69
1688.60, 2.32
1689.02, 2.32
1689.45, 1.94
1689.87, 1.76
1690.29, 1.20
1690.72, 0.45
1691.14, -0.48
1691.56, -1.60
1691.99, -2.34
1692.41, -3.27
1692.83, -3.83
1693.26, -4.21
1693.68, -4.02
1694.10, -3.09
1694.53, -2.16
1694.95, -1.04
1695.37, -0.29
1695.80, 0.08
1696.22, 0.45
1696.64, 0.45
1697.06, 0.27
1697.49, 0.08
1697.91, 0.08
1698.33, 0.08
1698.76, 0.08
1699.18, 0.27
1699.60, 0.45
1700.03, 0.45
1700.45, -0.11
1700.87, -0.48
1701.30, -0.85
1701.72, -1.22
1702.14, -1.41
1702.57, -1.41
1702.99, -1.22
1703.41, -0.48
1703.84, -0.11
1704.26, 0.08
1704.68, -0.29
1705.11, -0.85
1705.53, -1.22
1705.95, -1.78
1706.37, -2.16
1706.80, -2.16
1707.22, -2.16
1707.64, -2.16
1708.07, -1.97
1708.49, -1.78
1708.91, -1.78
1709.34, -1.41
1709.76, -1.41
1710.18, -1.41
1710.61, -1.41
1711.03, -1.41
1711.45, -1.41
1711.88, -1.04
1712.30, -0.29
1712.72, 0.64
1713.15, 1.57
1713.57, 2.13
1713.99, 2.69
1714.41, 2.69
1714.84, 3.25
1715.26, 3.62
1715.68, 3.99
1716.11, 4.74
1716.53, 5.11
1716.95, 5.30
1717.38, 5.11
1717.80, 4.55
1718.22, 3.99
1718.65, 3.25
1719.07, 2.13
1719.49, 1.20
1719.92, 0.27
1720.34, -0.67
1720.76, -1.41
1721.19, -1.97
1721.61, -1.78
1722.03, -1.41
1722.46, -1.41
1722.88, -1.04
1723.30, -1.04
1723.72, -1.04
1724.15, -1.04
1724.57, -0.48
1724.99, -0.11
1725.42, 0.45
1725.84, 0.83
1726.26, 0.83
1726.69, 0.83
1727.11, 0.64
1727.53, 0.08
1727.96, -0.29
1728.38, -0.48
1728.80, -0.48
1729.23, -0.29
1729.65, 0.08
1730.07, 0.08
1730.50, 0.27
1730.92, 0.45
1731.34, 0.83
1731.77, 0.83
1732.19, 0.83
1732.61, 0.45
1733.03, 0.45
1733.46, 0.45
1733.88, 0.64
1734.30, 1.01
1734.73, 1.38
1735.15, 1.57
1735.57, 1.57
1736.00, 1.57
1736.42, 1.38
1736.84, 1.38
1737.27, 1.57
1737.69, 1.94
1738.11, 1.94
1738.54, 2.32
1738.96, 2.32
1739.38, 1.94
1739.81, 1.76
1740.23, 1.38
1740.65, 0.83
1741.08, -0.11
1741.50, -1.22
1741.92, -2.34
1742.34, -3.09
1742.77, -3.65
1743.19, -4.02
1743.61, -4.02
1744.04, -4.02
1744.46, -4.02
1744.88, -4.39
1745.31, -4.39
1745.73, -3.83
1746.15, -3.27
1746.58, -2.72
1747.00, -1.60
1747.42, -1.22
1747.85, -0.67
1748.27, -0.29
1748.69, 0.08
1749.12, 0.27
1749.54, 0.64
1749.96, 1.01
1750.38, 1.20
1750.81, 1.57
1751.23, 1.76
1751.65, 1.94
1752.08, 2.32
1752.50, 2.32
1752.92, 2.32
1753.35, 2.32
1753.77, 2.69
1754.19, 2.88
1754.62, 3.43
1755.04, 3.81
1755.46, 4.18
1755.89, 4.55
1756.31, 4.55
1756.73, 4.18
1757.16, 3.99
1757.58, 3.43
1758.00, 2.88
1758.43, 2.50
1758.85, 2.13
1759.27, 1.76
1759.69, 1.38
1760.12, 1.01
1760.54, 0.64
1760.96, 0.27
1761.39, -0.11
1761.81, -0.29
1762.23, -0.67
1762.66, -0.67
1763.08, -0.48
1763.50, -0.11
1763.93, 0.45
1764.35, 1.20
1764.77, 1.76
1765.20, 1.94
1765.62, 2.32
1766.04, 2.69
1766.47, 3.06
1766.89, 3.06
1767.31, 3.06
1767.74, 2.69
1768.16, 2.69
1768.58, 2.50
1769.00, 2.13
1769.43, 1.76
1769.85, 1.38
1770.27, 0.83
1770.70, 0.45
1771.12, 0.45
1771.54, 0.27
1771.97, -0.11
1772.39, -0.85
1772.81, -1.22
1773.24, -1.60
1773.66, -1.78
1774.08, -1.78
1774.51, -1.41
1774.93, -1.22
1775.35, -1.04
1775.78, -1.41
1776.20, -1.60
1776.62, -2.16
1777.05, -2.72
1777.47, -3.27
1777.89, -3.46
1778.31, -3.65
1778.74, -3.27
1779.16, -2.90
1779.58, -2.72
1780.01, -1.78
1780.43, -1.22
1780.85, -0.11
1781.28, 1.01
1781.70, 1.76
1782.12, 2.69
1782.55, 3.43
1782.97, 4.18
1783.39, 4.74
1783.82, 5.11
1784.24, 5.67
1784.66, 5.67
1785.09, 5.67
1785.51, 5.11
1785.93, 4.74
1786.35, 4.18
1786.78, 3.25
1787.20, 2.50
1787.62, 1.57
1788.05, 0.83
1788.47, 0.27
1788.89, -0.11
1789.32, -0.67
1789.74, -1.04
1790.16, -0.85
1790.59, -0.67
1791.01, -0.29
1791.43, 0.08
1791.86, 0.45
1792.28, 0.45
1792.70, 0.64
1793.13, 0.45
1793.55, 0.45
1793.97, 0.45
1794.40, 0.64
1794.82, 0.45
1795.24, 0.45
1795.66, 0.08
1796.09, 0.08
1796.51, -0.29
1796.93, -0.29
1797.36, -0.67
1797.78, -0.48
1798.20, -0.29
1798.63, 0.08
1799.05, 0.45
1799.47, 0.83
1799.90, 0.83
1800.32, 0.83
1800.74, 1.20
1801.17, 1.38
1801.59, 1.76
1802.01, 2.32
1802.44, 2.69
1802.86, 3.06
1803.28, 3.43
1803.71, 3.43
1804.13, 3.06
1804.55, 2.88
1804.97, 2.32
1805.40, 1.57
1805.82, 0.83
1806.24, -0.11
1806.67, -0.85
1807.09, -1.78
1807.51, -2.34
1807.94, -2.72
1808.36, -3.27
1808.78, -3.46
1809.21, -3.65
1809.63, -4.02
1810.05, -4.39
1810.48, -4.39
1810.90, -4.39
1811.32, -4.02
1811.75, -3.65
1812.17, -3.27
1812.59, -3.09
1813.01, -2.72
1813.44, -2.34
1813.86, -1.97
1814.28, -1.60
1814.71, -1.22
1815.13, -0.85
1815.55, -0.67
1815.98, -0.29
1816.40, 0.08
1816.82, 0.27
1817.25, 0.83
1817.67, 1.57
1818.09, 2.50
1818.52, 3.25
1818.94, 3.81
1819.36, 4.18
1819.79, 4.18
1820.21, 3.99
1820.63, 3.81
1821.06, 3.43
1821.48, 3.25
1821.90, 2.88
1822.32, 2.50
1822.75, 1.94
1823.17, 1.76
1823.59, 1.20
1824.02, 0.45
1824.44, -0.11
1824.86, -0.48
1825.29, -0.85
1825.71, -1.22
1826.13, -1.97
1826.56, -2.34
1826.98, -2.53
1827.40, -2.90
1827.83, -2.90
1828.25, -2.90
1828.67, -2.90
1829.10, -3.27
1829.52, -3.65
1829.94, -3.83
1830.37, -4.02
1830.79, -4.02
1831.21, -4.02
1831.63, -4.02
1832.06, -3.46
1832.48, -3.09
1832.90, -2.53
1833.33, -1.97
1833.75, -1.60
1834.17, -0.85
1834.60, -0.11
1835.02, 0.64
1835.44, 1.57
1835.87, 2.32
1836.29, 2.88
1836.71, 3.43
1837.14, 3.81
1837.56, 3.81
1837.98, 3.81
1838.41, 3.62
1838.83, 3.06
1839.25, 2.50
1839.68, 1.57
1840.10, 1.01
1840.52, 0.45
1840.94, -0.11
1841.37, -0.48
1841.79, -1.04
1842.21, -1.41
1842.64, -1.78
1843.06, -1.97
1843.48, -2.16
1843.91, -2.16
1844.33, -2.16
1844.75, -2.16
1845.18, -1.78
1845.60, -1.78
1846.02, -1.78
1846.45, -2.16
1846.87, -2.34
1847.29, -2.72
1847.72, -2.90
1848.14, -2.53
1848.56, -2.16
1848.98, -1.60
1849.41, -1.22
1849.83, -0.85
1850.25, -0.48
1850.68, 0.08
1851.10, 0.45
1851.52, 0.83
1851.95, 0.83
1852.37, 0.64
1852.79, 0.45
1853.22, 0.45
1853.64, 0.45
1854.06, 0.45
1854.49, 0.08
1854.91, 0.08
1855.33, -0.29
1855.76, -0.85
1856.18, -1.22
1856.60, -1.78
1857.03, -1.78
1857.45, -1.78
1857.87, -1.22
1858.29, -0.85
1858.72, -0.48
1859.14, -0.11
1859.56, 0.27
1859.99, 1.01
1860.41, 1.38
1860.83, 1.76
1861.26, 1.94
1861.68, 1.57
1862.10, 1.57
1862.53, 1.94
1862.95, 2.50
1863.37, 3.06
1863.80, 3.81
1864.22, 4.18
1864.64, 4.55
1865.07, 4.37
1865.49, 3.81
1865.91, 3.43
1866.34, 3.06
1866.76, 3.06
1867.18, 2.88
1867.60, 3.06
1868.03, 2.69
1868.45, 2.50
1868.87, 1.94
1869.30, 1.94
1869.72, 1.57
1870.14, 1.57
1870.57, 1.38
1870.99, 1.20
1871.41, 1.20
1871.84, 1.20
1872.26, 1.20
1872.68, 1.57
1873.11, 1.76
1873.53, 1.94
1873.95, 1.94
1874.38, 1.94
1874.80, 1.94
1875.22, 1.94
1875.65, 2.32
1876.07, 2.50
1876.49, 2.88
1876.91, 3.06
1877.34, 3.06
1877.76, 3.06
1878.18, 3.06
1878.61, 2.69
1879.03, 2.88
1879.45, 3.06
1879.88, 3.25
1880.30, 3.62
1880.72, 3.81
1881.15, 3.81
1881.57, 3.81
1881.99, 3.43
1882.42, 3.06
1882.84, 3.06
1883.26, 2.88
1883.69, 3.06
1884.11, 3.06
1884.53, 3.06
1884.95, 3.06
1885.38, 2.69
1885.80, 2.69
1886.22, 2.32
1886.65, 2.32
1887.07, 2.32
1887.49, 2.32
1887.92, 2.50
1888.34, 2.69
1888.76, 3.06
1889.19, 3.06
1889.61, 3.06
1890.03, 3.06
1890.46, 3.06
1890.88, 2.69
1891.30, 2.32
1891.73, 2.32
1892.15, 2.32
1892.57, 2.32
1893.00, 2.13
1893.42, 1.94
1893.84, 1.94
1894.26, 1.76
1894.69, 1.20
1895.11, 0.83
1895.53, 0.64
1895.96, 0.45
1896.38, 0.83
1896.80, 1.20
1897.23, 1.57
1897.65, 1.94
1898.07, 2.13
1898.50, 2.32
1898.92, 2.13
1899.34, 1.94
1899.77, 1.76
1900.19, 1.76
1900.61, 1.94
1901.04, 1.94
1901.46, 1.94
1901.88, 1.94
1902.31, 1.94
1902.73, 1.76
1903.15, 1.57
1903.57, 1.57
1904.00, 1.38
1904.42, 1.20
1904.84, 1.20
1905.27, 0.83
1905.69, 0.83
1906.11, 0.83
1906.54, 0.83
1906.96, 0.83
1907.38, 1.01
1907.81, 1.01
1908.23, 1.20
1908.65, 1.20
1909.08, 1.01
1909.50, 0.83
1909.92, 0.64
1910.35, 0.45
1910.77, 0.08
1911.19, -0.29
1911.61, -0.29
1912.04, -0.67
1912.46, -1.04
1912.88, -1.22
1913.31, -1.41
1913.73, -1.41
1914.15, -1.78
1914.58, -1.78
1915.00, -2.16
1915.42, -2.16
1915.85, -2.16
1916.27, -2.16
1916.69, -1.78
1917.12, -1.60
1917.54, -1.41
1917.96, -1.41
1918.39, -1.97
1918.81, -2.34
1919.23, -3.09
1919.66, -3.46
1920.08, -3.83
1920.50, -4.02
1920.92, -4.39
1921.35, -4.39
1921.77, -4.21
1922.19, -4.02
1922.62, -4.02
1923.04, -3.83
1923.46, -3.46
1923.89, -3.27
1924.31, -2.90
1924.73, -2.53
1925.16, -2.16
1925.58, -1.60
1926.00, -1.04
1926.43, -0.29
1926.85, 0.27
1927.27, 0.45
1927.70, 0.45
1928.12, 0.27
1928.54, -0.29
1928.97, -0.67
1929.39, -0.67
1929.81, -1.04
1930.23, -1.04
1930.66, -1.22
1931.08, -1.22
1931.50, -1.04
1931.93, -1.41
1932.35, -1.41
1932.77, -1.41
1933.20, -1.04
1933.62, -1.04
1934.04, -1.04
1934.47, -1.04
1934.89, -1.22
1935.31, -1.22
1935.74, -1.22
1936.16, -1.22
1936.58, -1.41
1937.01, -1.41
1937.43, -1.41
1937.85, -1.78
1938.28, -1.78
1938.70, -1.78
1939.12, -1.41
1939.54, -1.41
1939.97, -1.04
1940.39, -0.67
1940.81, -0.11
1941.24, 0.45
1941.66, 1.01
1942.08, 1.57
1942.51, 2.13
1942.93, 2.50
1943.35, 2.69
1943.78, 3.06
1944.20, 3.06
1944.62, 3.06
1945.05, 2.69
1945.47, 2.69
1945.89, 2.32
1946.32, 2.32
1946.74, 2.32
1947.16, 2.32
1947.58, 2.13
1948.01, 1.94
1948.43, 1.57
1948.85, 1.20
1949.28, 1.20
1949.70, 1.20
1950.12, 1.38
1950.55, 1.76
1950.97, 1.94
1951.39, 1.94
1951.82, 1.94
1952.24, 1.57
1952.66, 1.57

