##NAMES=Hibbingite
##MID=0030001
##IDEAL CHEMISTRY=Fe_2_O_3_H_3_Cl
##LOCALITY=x
##OWNER=PAPER_Kodera2022
##SOURCE=x
##DESCRIPTION=x
##STATUS=clearly identified
##URL=x
##MEASURED CHEMISTRY=Fe_2_O_3_H_3_Cl
111.3738488, 103.4482759
111.8137831, 123.5632184
112.2537174, 128.7356322
112.6936517, 135.6321839
113.1335859, 143.1034483
113.5735202, 151.1494253
114.0134545, 159.7701149
114.4533887, 172.4137931
114.893323, 182.183908
115.3332573, 190.8045977
115.7731916, 205.7471264
116.2131258, 218.9655172
116.6530601, 252.8735632
117.0929944, 258.6206897
117.5329286, 279.3103448
117.9728629, 294.2528736
118.4127972, 328.1609195
118.8527314, 336.2068966
119.2926657, 374.137931
119.7326, 398.8505747
120.1725343, 427.5862069
120.6124685, 462.6436782
121.0524028, 483.908046
121.4923371, 532.7586207
121.9322713, 544.2528736
122.3722056, 559.1954023
122.8121399, 564.9425287
123.2520742, 579.3103448
123.6920084, 590.8045977
124.1319427, 595.9770115
124.571877, 601.1494253
125.0118112, 604.5977011
125.4517455, 604.5977011
125.8916798, 604.5977011
126.331614, 605.1724138
126.7715483, 605.1724138
127.2114826, 605.1724138
127.6514169, 605.1724138
128.0913511, 605.1724138
128.5312854, 604.5977011
128.9712197, 604.5977011
129.4111539, 604.5977011
129.8510882, 588.5057471
130.2910225, 573.5632184
130.7309568, 565.5172414
131.170891, 559.1954023
131.6108253, 547.1264368
132.0507596, 536.7816092
132.4906938, 522.4137931
132.9306281, 495.4022989
133.3705624, 477.5862069
133.8104966, 457.4712644
134.2504309, 447.7011494
134.6903652, 425.862069
135.1302995, 382.7586207
135.5702337, 368.9655172
136.010168, 356.3218391
136.4501023, 344.2528736
136.8900365, 331.6091954
137.3299708, 287.9310345
137.7699051, 274.7126437
138.2098394, 266.091954
138.6497736, 259.1954023
139.0897079, 248.8505747
139.5296422, 236.2068966
139.9695764, 229.8850575
140.4095107, 226.4367816
140.849445, 222.9885057
141.2893792, 220.1149425
141.7293135, 217.2413793
142.1692478, 214.3678161
142.6091821, 212.6436782
143.0491163, 212.0689655
143.4890506, 212.0689655
143.9289849, 212.0689655
144.3689191, 212.6436782
144.8088534, 216.6666667
145.2487877, 224.7126437
145.688722, 228.7356322
146.1286562, 232.7586207
146.5685905, 236.2068966
147.0085248, 240.2298851
147.448459, 245.4022989
147.8883933, 254.5977011
148.3283276, 270.1149425
148.7682618, 277.5862069
149.2081961, 286.2068966
149.6481304, 302.2988506
150.0880647, 319.5402299
150.5279989, 328.7356322
150.9679332, 362.6436782
151.4078675, 377.5862069
151.8478017, 413.2183908
152.287736, 458.045977
152.7276703, 526.4367816
153.1676046, 564.9425287
153.6075388, 578.1609195
154.0474731, 615.5172414
154.4874074, 628.7356322
154.9273416, 710.9195402
155.3672759, 874.7126437
155.8072102, 883.3333333
156.2471444, 931.6091954
156.6870787, 960.3448276
157.127013, 1000
157.5669473, 1000
158.0068815, 1000
158.4468158, 1000
158.8867501, 1000
159.3266843, 977.5862069
159.7666186, 977.5862069
160.2065529, 994.8275862
160.6464872, 994.8275862
161.0864214, 994.8275862
161.5263557, 994.8275862
161.96629, 994.8275862
162.4062242, 984.4827586
162.8461585, 978.7356322
163.2860928, 965.5172414
163.726027, 945.4022989
164.1659613, 934.4827586
164.6058956, 843.6781609
165.0458299, 793.1034483
165.4857641, 775.862069
165.9256984, 762.0689655
166.3656327, 671.8390805
166.8055669, 629.3103448
167.2455012, 570.6896552
167.6854355, 535.6321839
168.1253698, 504.5977011
168.565304, 492.5287356
169.0052383, 429.8850575
169.4451726, 417.816092
169.8851068, 397.7011494
170.3250411, 375.2873563
170.7649754, 366.6666667
171.2049096, 320.6896552
171.6448439, 310.3448276
172.0847782, 299.4252874
172.5247125, 286.7816092
172.9646467, 275.862069
173.404581, 267.2413793
173.8445153, 260.9195402
174.2844495, 256.8965517
174.7243838, 251.7241379
175.1643181, 245.9770115
175.6042524, 240.8045977
176.0441866, 235.6321839
176.4841209, 229.8850575
176.9240552, 224.137931
177.3639894, 220.6896552
177.8039237, 217.816092
178.243858, 214.9425287
178.6837922, 212.0689655
179.1237265, 209.1954023
179.5636608, 206.3218391
180.0035951, 204.0229885
180.4435293, 201.7241379
180.8834636, 198.2758621
181.3233979, 195.9770115
181.7633321, 191.954023
182.2032664, 191.954023
182.6432007, 190.2298851
183.083135, 189.0804598
183.5230692, 188.5057471
183.9630035, 187.9310345
184.4029378, 187.3563218
184.842872, 187.3563218
185.2828063, 186.7816092
185.7227406, 186.7816092
186.1626748, 186.7816092
186.6026091, 186.7816092
187.0425434, 186.7816092
187.4824777, 186.7816092
187.9224119, 186.7816092
188.3623462, 186.2068966
188.8022805, 186.2068966
189.2422147, 186.2068966
189.682149, 186.2068966
190.1220833, 186.2068966
190.5620176, 185.0574713
191.0019518, 185.0574713
191.4418861, 184.4827586
191.8818204, 184.4827586
192.3217546, 185.0574713
192.7616889, 185.6321839
193.2016232, 186.7816092
193.6415574, 186.7816092
194.0814917, 187.3563218
194.521426, 187.3563218
194.9613603, 187.3563218
195.4012945, 187.3563218
195.8412288, 187.3563218
196.2811631, 187.3563218
196.7210973, 187.3563218
197.1610316, 187.3563218
197.6009659, 187.3563218
198.0409002, 186.7816092
198.4808344, 185.6321839
198.9207687, 184.4827586
199.360703, 184.4827586
199.8006372, 184.4827586
200.2405715, 184.4827586
200.6805058, 184.4827586
201.12044, 185.0574713
201.5603743, 185.0574713
202.0003086, 185.0574713
202.4402429, 185.0574713
202.8801771, 185.0574713
203.3201114, 185.0574713
203.7600457, 185.0574713
204.1999799, 185.0574713
204.6399142, 185.0574713
205.0798485, 185.0574713
205.5197828, 184.4827586
205.959717, 184.4827586
206.3996513, 183.908046
206.8395856, 181.6091954
207.2795198, 181.6091954
207.7194541, 181.6091954
208.1593884, 181.0344828
208.5993226, 180.4597701
209.0392569, 179.8850575
209.4791912, 178.1609195
209.9191255, 178.1609195
210.3590597, 177.5862069
210.798994, 176.4367816
211.2389283, 170.1149425
211.6788625, 168.3908046
212.1187968, 166.6666667
212.5587311, 164.9425287
212.9986654, 161.4942529
213.4385996, 161.4942529
213.8785339, 159.7701149
214.3184682, 157.4712644
214.7584024, 155.1724138
215.1983367, 152.8735632
215.638271, 150
216.0782052, 147.7011494
216.5181395, 145.4022989
216.9580738, 143.6781609
217.3980081, 141.3793103
217.8379423, 139.6551724
218.2778766, 137.3563218
218.7178109, 135.6321839
219.1577451, 132.183908
219.5976794, 132.183908
220.0376137, 131.0344828
220.477548, 129.8850575
220.9174822, 128.1609195
221.3574165, 127.0114943
221.7973508, 125.862069
222.237285, 123.5632184
222.6772193, 120.1149425
223.1171536, 115.5172414
223.5570878, 113.2183908
223.9970221, 111.4942529
224.4369564, 108.6206897
224.8768907, 108.6206897
225.3168249, 107.4712644
225.7567592, 106.3218391
226.1966935, 102.8735632
226.6366277, 102.2988506
227.076562, 101.1494253
227.5164963, 100.5747126
227.9564306, 100.5747126
228.3963648, 98.27586207
228.8362991, 97.12643678
229.2762334, 95.97701149
229.7161676, 94.82758621
230.1561019, 93.67816092
230.5960362, 92.52873563
231.0359704, 91.37931034
231.4759047, 88.50574713
231.915839, 88.50574713
232.3557733, 85.63218391
232.7957075, 85.63218391
233.2356418, 84.48275862
233.6755761, 83.33333333
234.1155103, 82.18390805
234.5554446, 81.03448276
234.9953789, 79.88505747
235.4353132, 78.16091954
235.8752474, 78.16091954
236.3151817, 77.5862069
236.755116, 77.01149425
237.1950502, 75.86206897
237.6349845, 73.56321839
238.0749188, 73.56321839
238.514853, 72.4137931
238.9547873, 71.83908046
239.3947216, 71.26436782
239.8346559, 71.26436782
240.2745901, 70.11494253
240.7145244, 70.11494253
241.1544587, 69.54022989
241.5943929, 67.81609195
242.0343272, 67.81609195
242.4742615, 66.66666667
242.9141958, 63.79310345
243.35413, 62.64367816
243.7940643, 62.64367816
244.2339986, 62.64367816
244.6739328, 62.64367816
245.1138671, 62.64367816
245.5538014, 60.34482759
245.9937356, 60.34482759
246.4336699, 60.34482759
246.8736042, 60.34482759
247.3135385, 59.77011494
247.7534727, 59.1954023
248.193407, 59.1954023
248.6333413, 58.62068966
249.0732755, 58.04597701
249.5132098, 58.04597701
249.9531441, 58.04597701
250.3930784, 57.47126437
250.8330126, 57.47126437
251.2729469, 57.47126437
251.7128812, 56.89655172
252.1528154, 56.89655172
252.5927497, 56.32183908
253.032684, 56.32183908
253.4726182, 56.32183908
253.9125525, 55.74712644
254.3524868, 55.74712644
254.7924211, 52.87356322
255.2323553, 52.87356322
255.6722896, 52.29885057
256.1122239, 52.29885057
256.5521581, 54.02298851
256.9920924, 54.02298851
257.4320267, 54.59770115
257.871961, 54.59770115
258.3118952, 54.59770115
258.7518295, 54.59770115
259.1917638, 54.59770115
259.631698, 53.44827586
260.0716323, 52.29885057
260.5115666, 51.14942529
260.9515008, 51.14942529
261.3914351, 56.32183908
261.8313694, 60.34482759
262.2713037, 60.34482759
262.7112379, 60.34482759
263.1511722, 60.34482759
263.5911065, 60.91954023
264.0310407, 60.91954023
264.470975, 60.91954023
264.9109093, 60.91954023
265.3508436, 60.91954023
265.7907778, 60.91954023
266.2307121, 60.91954023
266.6706464, 60.91954023
267.1105806, 58.04597701
267.5505149, 48.27586207
267.9904492, 48.27586207
268.4303834, 48.27586207
268.8703177, 47.70114943
269.310252, 47.70114943
269.7501863, 47.70114943
270.1901205, 47.70114943
270.6300548, 47.70114943
271.0699891, 47.70114943
271.5099233, 47.12643678
271.9498576, 47.12643678
272.3897919, 47.12643678
272.8297262, 47.12643678
273.2696604, 51.14942529
273.7095947, 55.17241379
274.149529, 57.47126437
274.5894632, 57.47126437
275.0293975, 57.47126437
275.4693318, 57.47126437
275.909266, 57.47126437
276.3492003, 56.89655172
276.7891346, 56.89655172
277.2290689, 56.32183908
277.6690031, 56.32183908
278.1089374, 56.32183908
278.5488717, 56.32183908
278.9888059, 50.57471264
279.4287402, 50.57471264
279.8686745, 50
280.3086088, 50.57471264
280.748543, 51.14942529
281.1884773, 52.29885057
281.6284116, 52.87356322
282.0683458, 52.87356322
282.5082801, 52.87356322
282.9482144, 52.87356322
283.3881486, 52.87356322
283.8280829, 52.87356322
284.2680172, 52.87356322
284.7079515, 53.44827586
285.1478857, 54.59770115
285.58782, 55.17241379
286.0277543, 56.32183908
286.4676885, 57.47126437
286.9076228, 58.04597701
287.3475571, 59.1954023
287.7874914, 60.34482759
288.2274256, 63.79310345
288.6673599, 63.79310345
289.1072942, 64.36781609
289.5472284, 64.36781609
289.9871627, 64.36781609
290.427097, 64.36781609
290.8670312, 64.36781609
291.3069655, 64.36781609
291.7468998, 64.36781609
292.1868341, 64.94252874
292.6267683, 64.94252874
293.0667026, 65.51724138
293.5066369, 66.09195402
293.9465711, 66.66666667
294.3865054, 67.24137931
294.8264397, 68.96551724
295.266374, 70.11494253
295.7063082, 71.26436782
296.1462425, 73.56321839
296.5861768, 75.28735632
297.026111, 77.01149425
297.4660453, 78.73563218
297.9059796, 81.03448276
298.3459138, 82.75862069
298.7858481, 84.48275862
299.2257824, 86.20689655
299.6657167, 87.93103448
300.1056509, 89.65517241
300.5455852, 91.37931034
300.9855195, 93.10344828
301.4254537, 94.82758621
301.865388, 94.82758621
302.3053223, 97.70114943
302.7452566, 99.42528736
303.1851908, 101.1494253
303.6251251, 101.1494253
304.0650594, 104.0229885
304.5049936, 105.7471264
304.9449279, 108.045977
305.3848622, 109.7701149
305.8247964, 111.4942529
306.2647307, 113.7931034
306.704665, 116.091954
307.1445993, 117.816092
307.5845335, 120.1149425
308.0244678, 122.4137931
308.4644021, 124.7126437
308.9043363, 127.0114943
309.3442706, 129.3103448
309.7842049, 131.6091954
310.2241392, 133.908046
310.6640734, 136.2068966
311.1040077, 139.6551724
311.543942, 143.6781609
311.9838762, 148.2758621
312.4238105, 151.7241379
312.8637448, 156.3218391
313.303679, 156.3218391
313.7436133, 158.6206897
314.1835476, 159.7701149
314.6234819, 160.3448276
315.0634161, 160.3448276
315.5033504, 160.3448276
315.9432847, 160.3448276
316.3832189, 160.3448276
316.8231532, 163.2183908
317.2630875, 163.2183908
317.7030218, 163.2183908
318.142956, 163.2183908
318.5828903, 163.2183908
319.0228246, 162.0689655
319.4627588, 162.0689655
319.9026931, 162.0689655
320.3426274, 162.0689655
320.7825616, 162.0689655
321.2224959, 162.0689655
321.6624302, 156.3218391
322.1023645, 155.7471264
322.5422987, 154.5977011
322.982233, 154.0229885
323.4221673, 153.4482759
323.8621015, 152.8735632
324.3020358, 151.7241379
324.7419701, 150
325.1819044, 148.2758621
325.6218386, 145.9770115
326.0617729, 143.6781609
326.5017072, 140.8045977
326.9416414, 137.9310345
327.3815757, 134.4827586
327.82151, 129.8850575
328.2614442, 124.7126437
328.7013785, 120.6896552
329.1413128, 117.2413793
329.5812471, 114.3678161
330.0211813, 112.0689655
330.4611156, 109.1954023
330.9010499, 106.3218391
331.3409841, 103.4482759
331.7809184, 101.1494253
332.2208527, 99.42528736
332.660787, 97.70114943
333.1007212, 95.97701149
333.5406555, 93.10344828
333.9805898, 93.10344828
334.420524, 91.37931034
334.8604583, 89.65517241
335.3003926, 87.35632184
335.7403268, 85.63218391
336.1802611, 83.33333333
336.6201954, 79.88505747
337.0601297, 75.86206897
337.5000639, 73.56321839
337.9399982, 72.98850575
338.3799325, 72.98850575
338.8198667, 71.83908046
339.259801, 71.83908046
339.6997353, 71.26436782
340.1396696, 70.68965517
340.5796038, 70.11494253
341.0195381, 69.54022989
341.4594724, 68.96551724
341.8994066, 67.81609195
342.3393409, 67.81609195
342.7792752, 68.3908046
343.2192094, 68.3908046
343.6591437, 68.3908046
344.099078, 68.3908046
344.5390123, 68.3908046
344.9789465, 67.81609195
345.4188808, 66.66666667
345.8588151, 66.09195402
346.2987493, 65.51724138
346.7386836, 65.51724138
347.1786179, 64.94252874
347.6185522, 64.94252874
348.0584864, 64.36781609
348.4984207, 64.36781609
348.938355, 63.79310345
349.3782892, 63.79310345
349.8182235, 63.2183908
350.2581578, 63.2183908
350.698092, 62.64367816
351.1380263, 62.64367816
351.5779606, 62.06896552
352.0178949, 62.06896552
352.4578291, 61.49425287
352.8977634, 60.34482759
353.3376977, 60.34482759
353.7776319, 59.77011494
354.2175662, 59.1954023
354.6575005, 58.62068966
355.0974348, 59.1954023
355.537369, 59.77011494
355.9773033, 60.34482759
356.4172376, 61.49425287
356.8571718, 62.06896552
357.2971061, 62.06896552
357.7370404, 63.79310345
358.1769746, 64.36781609
358.6169089, 64.94252874
359.0568432, 65.51724138
359.4967775, 65.51724138
359.9367117, 67.24137931
360.376646, 67.81609195
360.8165803, 68.3908046
361.2565145, 68.96551724
361.6964488, 70.11494253
362.1363831, 72.98850575
362.5763174, 72.98850575
363.0162516, 73.56321839
363.4561859, 73.56321839
363.8961202, 75.28735632
364.3360544, 76.43678161
364.7759887, 79.31034483
365.215923, 82.18390805
365.6558572, 83.90804598
366.0957915, 83.90804598
366.5357258, 83.90804598
366.9756601, 83.90804598
367.4155943, 83.90804598
367.8555286, 81.03448276
368.2954629, 81.03448276
368.7353971, 81.03448276
369.1753314, 81.6091954
369.6152657, 81.6091954
370.0552, 81.6091954
370.4951342, 81.6091954
370.9350685, 81.6091954
371.3750028, 82.18390805
371.814937, 83.33333333
372.2548713, 84.48275862
372.6948056, 86.20689655
373.1347398, 88.50574713
373.5746741, 90.8045977
374.0146084, 93.67816092
374.4545427, 97.70114943
374.8944769, 100.5747126
375.3344112, 101.7241379
375.7743455, 102.8735632
376.2142797, 104.0229885
376.654214, 105.1724138
377.0941483, 106.3218391
377.5340826, 107.4712644
377.9740168, 108.6206897
378.4139511, 109.7701149
378.8538854, 110.9195402
379.2938196, 112.0689655
379.7337539, 113.7931034
380.1736882, 114.9425287
380.6136224, 116.6666667
381.0535567, 117.816092
381.493491, 119.5402299
381.9334253, 121.2643678
382.3733595, 122.9885057
382.8132938, 124.7126437
383.2532281, 125.862069
383.6931623, 127.5862069
384.1330966, 129.3103448
384.5730309, 130.4597701
385.0129652, 132.183908
385.4528994, 133.3333333
385.8928337, 135.0574713
386.332768, 136.2068966
386.7727022, 137.9310345
387.2126365, 139.6551724
387.6525708, 141.3793103
388.0925051, 144.2528736
388.5324393, 147.1264368
388.9723736, 150
389.4123079, 152.2988506
389.8522421, 154.0229885
390.2921764, 156.3218391
390.7321107, 158.045977
391.1720449, 159.7701149
391.6119792, 162.0689655
392.0519135, 164.9425287
392.4918478, 175.2873563
392.931782, 179.8850575
393.3717163, 182.7586207
393.8116506, 185.0574713
394.2515848, 187.3563218
394.6915191, 188.5057471
395.1314534, 190.2298851
395.5713877, 191.954023
396.0113219, 194.2528736
396.4512562, 197.1264368
396.8911905, 200.5747126
397.3311247, 206.3218391
397.771059, 213.7931034
398.2109933, 217.816092
398.6509275, 221.2643678
399.0908618, 224.137931
399.5307961, 228.1609195
399.9707304, 233.3333333
400.4106646, 238.5057471
400.8505989, 243.6781609
401.2905332, 247.7011494
401.7304674, 252.8735632
402.1704017, 260.3448276
402.610336, 267.816092
403.0502703, 274.137931
403.4902045, 282.7586207
403.9301388, 289.6551724
404.3700731, 294.8275862
404.8100073, 301.7241379
405.2499416, 309.7701149
405.6898759, 318.3908046
406.1298101, 331.6091954
406.5697444, 341.3793103
407.0096787, 348.8505747
407.449613, 357.4712644
407.8895472, 367.816092
408.3294815, 381.6091954
408.7694158, 391.3793103
409.20935, 397.7011494
409.6492843, 404.0229885
410.0892186, 417.2413793
410.5291529, 429.8850575
410.9690871, 439.0804598
411.4090214, 448.8505747
411.8489557, 466.091954
412.2888899, 477.5862069
412.7288242, 485.0574713
413.1687585, 493.6781609
413.6086927, 502.2988506
414.048627, 510.3448276
414.4885613, 519.5402299
414.9284956, 528.1609195
415.3684298, 535.6321839
415.8083641, 545.4022989
416.2482984, 554.5977011
416.6882326, 563.7931034
417.1281669, 586.7816092
417.5681012, 596.5517241
418.0080355, 604.0229885
418.4479697, 609.7701149
418.887904, 613.2183908
419.3278383, 614.9425287
419.7677725, 616.6666667
420.2077068, 618.3908046
420.6476411, 619.5402299
421.0875753, 620.6896552
421.5275096, 630.4597701
421.9674439, 631.0344828
422.4073782, 631.0344828
422.8473124, 631.0344828
423.2872467, 631.0344828
423.727181, 631.0344828
424.1671152, 631.0344828
424.6070495, 631.0344828
425.0469838, 631.0344828
425.4869181, 631.0344828
425.9268523, 631.0344828
426.3667866, 631.0344828
426.8067209, 631.0344828
427.2466551, 631.0344828
427.6865894, 631.0344828
428.1265237, 617.816092
428.5664579, 612.0689655
429.0063922, 605.1724138
429.4463265, 595.9770115
429.8862608, 589.6551724
430.326195, 585.6321839
430.7661293, 581.0344828
431.2060636, 574.7126437
431.6459978, 567.816092
432.0859321, 559.7701149
432.5258664, 548.8505747
432.9658007, 537.9310345
433.4057349, 528.7356322
433.8456692, 512.6436782
434.2856035, 500.5747126
434.7255377, 491.954023
435.165472, 482.7586207
435.6054063, 474.7126437
436.0453405, 465.5172414
436.4852748, 452.8735632
436.9252091, 432.183908
437.3651434, 423.5632184
437.8050776, 414.3678161
438.2450119, 404.5977011
438.6849462, 394.8275862
439.1248804, 379.8850575
439.5648147, 364.3678161
440.004749, 351.7241379
440.4446833, 345.9770115
440.8846175, 337.9310345
441.3245518, 328.1609195
441.7644861, 320.6896552
442.2044203, 314.3678161
442.6443546, 304.0229885
443.0842889, 292.5287356
443.5242231, 285.0574713
443.9641574, 278.1609195
444.4040917, 266.6666667
444.844026, 260.9195402
445.2839602, 256.3218391
445.7238945, 252.2988506
446.1638288, 247.7011494
446.603763, 243.6781609
447.0436973, 238.5057471
447.4836316, 223.5632184
447.9235659, 208.045977
448.3635001, 201.7241379
448.8034344, 197.1264368
449.2433687, 193.1034483
449.6833029, 189.0804598
450.1232372, 186.2068966
450.5631715, 182.183908
451.0031057, 177.0114943
451.44304, 168.3908046
451.8829743, 161.4942529
452.3229086, 158.045977
452.7628428, 154.5977011
453.2027771, 151.1494253
453.6427114, 147.1264368
454.0826456, 143.1034483
454.5225799, 140.2298851
454.9625142, 137.9310345
455.4024485, 136.2068966
455.8423827, 134.4827586
456.282317, 132.7586207
456.7222513, 130.4597701
457.1621855, 129.3103448
457.6021198, 128.1609195
458.0420541, 126.4367816
458.4819883, 124.137931
458.9219226, 122.4137931
459.3618569, 120.1149425
459.8017912, 118.3908046
460.2417254, 116.091954
460.6816597, 114.3678161
461.121594, 112.6436782
461.5615282, 110.3448276
462.0014625, 108.045977
462.4413968, 105.7471264
462.8813311, 103.4482759
463.3212653, 100.5747126
463.7611996, 97.70114943
464.2011339, 92.52873563
464.6410681, 90.22988506
465.0810024, 87.93103448
465.5209367, 86.20689655
465.9608709, 85.05747126
466.4008052, 84.48275862
466.8407395, 84.48275862
467.2806738, 83.90804598
467.720608, 83.90804598
468.1605423, 83.90804598
468.6004766, 83.90804598
469.0404108, 83.33333333
469.4803451, 83.33333333
469.9202794, 82.75862069
470.3602137, 82.75862069
470.8001479, 82.75862069
471.2400822, 82.75862069
471.6800165, 79.88505747
472.1199507, 78.73563218
472.559885, 78.16091954
472.9998193, 77.01149425
473.4397535, 75.86206897
473.8796878, 74.71264368
474.3196221, 72.98850575
474.7595564, 68.96551724
475.1994906, 68.96551724
475.6394249, 68.3908046
476.0793592, 68.3908046
476.5192934, 67.81609195
476.9592277, 67.24137931
477.399162, 67.24137931
477.8390963, 67.24137931
478.2790305, 65.51724138
478.7189648, 65.51724138
479.1588991, 65.51724138
479.5988333, 65.51724138
480.0387676, 65.51724138
480.4787019, 65.51724138
480.9186361, 65.51724138
481.3585704, 65.51724138
481.7985047, 65.51724138
482.238439, 65.51724138
482.6783732, 65.51724138
483.1183075, 65.51724138
483.5582418, 65.51724138
483.998176, 65.51724138
484.4381103, 65.51724138
484.8780446, 64.94252874
485.3179789, 64.94252874
485.7579131, 64.94252874
486.1978474, 64.94252874
486.6377817, 64.36781609
487.0777159, 64.36781609
487.5176502, 63.79310345
487.9575845, 63.79310345
488.3975187, 63.2183908
488.837453, 62.64367816
489.2773873, 62.64367816
489.7173216, 62.06896552
490.1572558, 62.06896552
490.5971901, 61.49425287
491.0371244, 61.49425287
491.4770586, 61.49425287
491.9169929, 60.91954023
492.3569272, 60.91954023
492.7968615, 60.34482759
493.2367957, 59.77011494
493.67673, 59.1954023
494.1166643, 59.1954023
494.5565985, 59.1954023
494.9965328, 59.77011494
495.4364671, 60.34482759
495.8764013, 60.91954023
496.3163356, 61.49425287
496.7562699, 62.06896552
497.1962042, 62.06896552
497.6361384, 62.06896552
498.0760727, 62.06896552
498.516007, 62.06896552
498.9559412, 62.64367816
499.3958755, 62.64367816
499.8358098, 62.64367816
500.2757441, 62.64367816
500.7156783, 62.64367816
501.1556126, 62.64367816
501.5955469, 63.2183908
502.0354811, 63.2183908
502.4754154, 63.2183908
502.9153497, 63.2183908
503.3552839, 63.2183908
503.7952182, 60.34482759
504.2351525, 60.91954023
504.6750868, 62.64367816
505.115021, 63.2183908
505.5549553, 63.2183908
505.9948896, 63.2183908
506.4348238, 63.2183908
506.8747581, 63.2183908
507.3146924, 63.2183908
507.7546267, 62.64367816
508.1945609, 62.64367816
508.6344952, 62.64367816
509.0744295, 62.64367816
509.5143637, 61.49425287
509.954298, 61.49425287
510.3942323, 54.02298851
510.8341665, 54.59770115
511.2741008, 61.49425287
511.7140351, 61.49425287
512.1539694, 61.49425287
512.5939036, 61.49425287
513.0338379, 61.49425287
513.4737722, 61.49425287
513.9137064, 61.49425287
514.3536407, 61.49425287
514.793575, 61.49425287
515.2335093, 62.06896552
515.6734435, 62.06896552
516.1133778, 62.06896552
516.5533121, 62.06896552
516.9932463, 62.64367816
517.4331806, 63.79310345
517.8731149, 64.36781609
518.3130491, 65.51724138
518.7529834, 66.66666667
519.1929177, 68.96551724
519.632852, 70.11494253
520.0727862, 71.26436782
520.5127205, 71.83908046
520.9526548, 72.4137931
521.392589, 72.98850575
521.8325233, 73.56321839
522.2724576, 73.56321839
522.7123919, 74.13793103
523.1523261, 74.13793103
523.5922604, 74.13793103
524.0321947, 74.13793103
524.4721289, 74.13793103
524.9120632, 71.83908046
525.3519975, 67.81609195
525.7919317, 64.94252874
526.231866, 63.79310345
526.6718003, 64.36781609
527.1117346, 64.36781609
527.5516688, 65.51724138
527.9916031, 66.09195402
528.4315374, 66.66666667
528.8714716, 66.66666667
529.3114059, 66.66666667
529.7513402, 66.66666667
530.1912745, 66.66666667
530.6312087, 66.66666667
531.071143, 66.66666667
531.5110773, 66.66666667
531.9510115, 65.51724138
532.3909458, 65.51724138
532.8308801, 65.51724138
533.2708143, 65.51724138
533.7107486, 65.51724138
534.1506829, 65.51724138
534.5906172, 66.09195402
535.0305514, 66.09195402
535.4704857, 72.4137931
535.91042, 72.4137931
536.3503542, 72.4137931
536.7902885, 72.4137931
537.2302228, 72.4137931
537.6701571, 72.4137931
538.1100913, 72.98850575
538.5500256, 73.56321839
538.9899599, 74.13793103
539.4298941, 74.71264368
539.8698284, 75.86206897
540.3097627, 77.01149425
540.7496969, 78.16091954
541.1896312, 79.31034483
541.6295655, 83.90804598
542.0694998, 85.05747126
542.509434, 85.63218391
542.9493683, 86.20689655
543.3893026, 86.20689655
543.8292368, 86.20689655
544.2691711, 86.20689655
544.7091054, 86.20689655
545.1490397, 84.48275862
545.5889739, 83.33333333
546.0289082, 82.18390805
546.4688425, 82.75862069
546.9087767, 82.75862069
547.348711, 82.75862069
547.7886453, 82.75862069
548.2285795, 82.75862069
548.6685138, 83.33333333
549.1084481, 83.90804598
549.5483824, 85.05747126
549.9883166, 85.63218391
550.4282509, 86.20689655
550.8681852, 86.7816092
551.3081194, 89.65517241
551.7480537, 89.65517241
552.187988, 89.65517241
552.6279223, 90.8045977
553.0678565, 91.37931034
553.5077908, 91.95402299
553.9477251, 91.95402299
554.3876593, 93.67816092
554.8275936, 94.82758621
555.2675279, 94.82758621
555.7074621, 94.82758621
556.1473964, 95.97701149
556.5873307, 95.97701149
557.027265, 95.97701149
557.4671992, 97.12643678
557.9071335, 98.27586207
558.3470678, 98.85057471
558.787002, 100
559.2269363, 100.5747126
559.6668706, 101.1494253
560.1068049, 101.7241379
560.5467391, 101.7241379
560.9866734, 102.2988506
561.4266077, 102.8735632
561.8665419, 102.8735632
562.3064762, 103.4482759
562.7464105, 103.4482759
563.1863447, 103.4482759
563.626279, 103.4482759
564.0662133, 104.5977011
564.5061476, 104.5977011
564.9460818, 104.5977011
565.3860161, 104.5977011
565.8259504, 104.5977011
566.2658846, 104.5977011
566.7058189, 104.5977011
567.1457532, 104.5977011
567.5856875, 105.7471264
568.0256217, 106.8965517
568.465556, 108.6206897
568.9054903, 110.3448276
569.3454245, 112.0689655
569.7853588, 113.7931034
570.2252931, 115.5172414
570.6652273, 117.2413793
571.1051616, 118.9655172
571.5450959, 120.6896552
571.9850302, 120.6896552
572.4249644, 123.5632184
572.8648987, 123.5632184
573.304833, 123.5632184
573.7447672, 123.5632184
574.1847015, 123.5632184
574.6246358, 124.137931
575.0645701, 125.2873563
575.5045043, 126.4367816
575.9444386, 128.1609195
576.3843729, 129.8850575
576.8243071, 131.6091954
577.2642414, 133.3333333
577.7041757, 133.908046
578.1441099, 135.0574713
578.5840442, 136.7816092
579.0239785, 136.7816092
579.4639128, 136.7816092
579.903847, 141.954023
580.3437813, 143.6781609
580.7837156, 145.4022989
581.2236498, 147.7011494
581.6635841, 149.4252874
582.1035184, 151.1494253
582.5434527, 152.8735632
582.9833869, 154.5977011
583.4233212, 156.3218391
583.8632555, 157.4712644
584.3031897, 159.1954023
584.743124, 160.3448276
585.1830583, 162.0689655
585.6229925, 163.7931034
586.0629268, 164.9425287
586.5028611, 166.6666667
586.9427954, 168.3908046
587.3827296, 170.1149425
587.8226639, 171.8390805
588.2625982, 173.5632184
588.7025324, 175.2873563
589.1424667, 177.0114943
589.582401, 178.1609195
590.0223353, 179.8850575
590.4622695, 179.8850575
590.9022038, 179.8850575
591.3421381, 179.8850575
591.7820723, 179.8850575
592.2220066, 182.183908
592.6619409, 183.908046
593.1018751, 186.2068966
593.5418094, 189.0804598
593.9817437, 192.5287356
594.421678, 195.4022989
594.8616122, 198.2758621
595.3015465, 201.1494253
595.7414808, 203.4482759
596.181415, 206.8965517
596.6213493, 209.7701149
597.0612836, 212.0689655
597.5012179, 214.9425287
597.9411521, 217.2413793
598.3810864, 219.5402299
598.8210207, 221.8390805
599.2609549, 224.137931
599.7008892, 226.4367816
600.1408235, 228.1609195
600.5807577, 229.8850575
601.020692, 231.6091954
601.4606263, 232.7586207
601.9005606, 234.4827586
602.3404948, 235.6321839
602.7804291, 236.7816092
603.2203634, 238.5057471
603.6602976, 240.2298851
604.1002319, 241.954023
604.5401662, 243.6781609
604.9801005, 246.5517241
605.4200347, 249.4252874
605.859969, 252.8735632
606.2999033, 255.1724138
606.7398375, 256.8965517
607.1797718, 256.8965517
607.6197061, 259.7701149
608.0596403, 260.9195402
608.4995746, 262.0689655
608.9395089, 262.0689655
609.3794432, 263.7931034
609.8193774, 263.7931034
610.2593117, 263.7931034
610.699246, 263.7931034
611.1391802, 267.2413793
611.5791145, 267.2413793
612.0190488, 269.5402299
612.4589831, 269.5402299
612.8989173, 269.5402299
613.3388516, 272.4137931
613.7787859, 272.4137931
614.2187201, 274.137931
614.6586544, 274.137931
615.0985887, 274.137931
615.5385229, 274.137931
615.9784572, 274.7126437
616.4183915, 275.2873563
616.8583258, 275.2873563
617.29826, 275.2873563
617.7381943, 275.2873563
618.1781286, 275.2873563
618.6180628, 274.137931
619.0579971, 271.8390805
619.4979314, 270.6896552
619.9378657, 268.3908046
620.3777999, 267.2413793
620.8177342, 266.091954
621.2576685, 264.9425287
621.6976027, 264.9425287
622.137537, 264.9425287
622.5774713, 263.2183908
623.0174055, 263.2183908
623.4573398, 263.2183908
623.8972741, 262.6436782
624.3372084, 260.3448276
624.7771426, 254.0229885
625.2170769, 250
625.6570112, 246.5517241
626.0969454, 244.8275862
626.5368797, 243.1034483
626.976814, 241.3793103
627.4167483, 241.3793103
627.8566825, 241.3793103
628.2966168, 239.0804598
628.7365511, 234.4827586
629.1764853, 231.6091954
629.6164196, 224.7126437
630.0563539, 216.6666667
630.4962881, 215.5172414
630.9362224, 213.7931034
631.3761567, 213.7931034
631.816091, 213.7931034
632.2560252, 213.7931034
632.6959595, 213.2183908
633.1358938, 212.6436782
633.575828, 212.0689655
634.0157623, 212.0689655
634.4556966, 201.7241379
634.8956309, 193.6781609
635.3355651, 189.0804598
635.7754994, 185.0574713
636.2154337, 181.0344828
636.6553679, 176.4367816
637.0953022, 173.5632184
637.5352365, 171.8390805
637.9751707, 166.6666667
638.415105, 163.2183908
638.8550393, 161.4942529
639.2949736, 158.6206897
639.7349078, 155.7471264
640.1748421, 152.8735632
640.6147764, 150
641.0547106, 147.7011494
641.4946449, 145.4022989
641.9345792, 141.3793103
642.3745135, 141.3793103
642.8144477, 139.0804598
643.254382, 137.3563218
643.6943163, 135.0574713
644.1342505, 132.7586207
644.5741848, 131.0344828
645.0141191, 128.7356322
645.4540533, 126.4367816
645.8939876, 124.7126437
646.3339219, 122.4137931
646.7738562, 120.1149425
647.2137904, 117.816092
647.6537247, 116.091954
648.093659, 112.0689655
648.5335932, 112.0689655
648.9735275, 110.3448276
649.4134618, 108.6206897
649.8533961, 107.4712644
650.2933303, 104.5977011
650.7332646, 104.5977011
651.1731989, 103.4482759
651.6131331, 98.85057471
652.0530674, 98.85057471
652.4930017, 98.85057471
652.9329359, 93.10344828
653.3728702, 93.10344828
653.8128045, 90.22988506
654.2527388, 83.90804598
654.692673, 82.18390805
655.1326073, 81.03448276
655.5725416, 80.45977011
656.0124758, 80.45977011
656.4524101, 79.31034483
656.8923444, 78.16091954
657.3322787, 78.73563218
657.7722129, 78.73563218
658.2121472, 79.31034483
658.6520815, 79.31034483
659.0920157, 79.31034483
659.53195, 79.31034483
659.9718843, 79.31034483
660.4118185, 78.73563218
660.8517528, 78.73563218
661.2916871, 78.73563218
661.7316214, 78.73563218
662.1715556, 78.16091954
662.6114899, 78.16091954
663.0514242, 77.5862069
663.4913584, 70.68965517
663.9312927, 64.94252874
664.371227, 63.2183908
664.8111613, 63.2183908
665.2510955, 63.2183908
665.6910298, 63.2183908
666.1309641, 62.64367816
666.5708983, 63.79310345
667.0108326, 64.36781609
667.4507669, 65.51724138
667.8907011, 65.51724138
668.3306354, 65.51724138
668.7705697, 65.51724138
669.210504, 65.51724138
669.6504382, 65.51724138
670.0903725, 65.51724138
670.5303068, 64.94252874
670.970241, 64.36781609
671.4101753, 63.79310345
671.8501096, 63.2183908
672.2900439, 62.64367816
672.7299781, 62.06896552
673.1699124, 61.49425287
673.6098467, 60.91954023
674.0497809, 59.1954023
674.4897152, 60.34482759
674.9296495, 62.06896552
675.3695837, 62.06896552
675.809518, 62.64367816
676.2494523, 62.64367816
676.6893866, 62.64367816
677.1293208, 62.64367816
677.5692551, 62.64367816
678.0091894, 60.91954023
678.4491236, 60.91954023
678.8890579, 60.91954023
679.3289922, 60.91954023
679.7689265, 60.34482759
680.2088607, 59.1954023
680.648795, 59.1954023
681.0887293, 58.62068966
681.5286635, 58.04597701
681.9685978, 56.32183908
682.4085321, 56.32183908
682.8484663, 55.74712644
683.2884006, 54.59770115
683.7283349, 54.02298851
684.1682692, 52.87356322
684.6082034, 52.29885057
685.0481377, 50.57471264
685.488072, 50.57471264
685.9280062, 50
686.3679405, 50
686.8078748, 50
687.2478091, 50.57471264
687.6877433, 50.57471264
688.1276776, 51.14942529
688.5676119, 51.14942529
689.0075461, 51.72413793
689.4474804, 51.72413793
689.8874147, 51.72413793
690.3273489, 51.72413793
690.7672832, 52.29885057
691.2072175, 52.29885057
691.6471518, 52.29885057
692.087086, 52.29885057
692.5270203, 52.29885057
692.9669546, 51.72413793
693.4068888, 51.72413793
693.8468231, 51.72413793
694.2867574, 51.72413793
694.7266917, 51.14942529
695.1666259, 50.57471264
695.6065602, 50.57471264
696.0464945, 49.42528736
696.4864287, 49.42528736
696.926363, 48.85057471
697.3662973, 49.42528736
697.8062315, 49.42528736
698.2461658, 50.57471264
698.6861001, 51.14942529
699.1260344, 51.14942529
699.5659686, 52.29885057
700.0059029, 52.29885057
700.4458372, 52.29885057
700.8857714, 52.29885057
701.3257057, 52.29885057
701.76564, 52.29885057
702.2055743, 52.29885057
702.6455085, 52.29885057
703.0854428, 51.72413793
703.5253771, 51.72413793
703.9653113, 51.72413793
704.4052456, 51.14942529
704.8451799, 51.14942529
705.2851141, 50.57471264
705.7250484, 50
706.1649827, 49.42528736
706.604917, 49.42528736
707.0448512, 48.85057471
707.4847855, 48.27586207
707.9247198, 48.27586207
708.364654, 48.27586207
708.8045883, 48.27586207
709.2445226, 48.85057471
709.6844569, 48.85057471
710.1243911, 48.85057471
710.5643254, 49.42528736
711.0042597, 49.42528736
711.4441939, 49.42528736
711.8841282, 49.42528736
712.3240625, 50
712.7639967, 50
713.203931, 50
713.6438653, 50.57471264
714.0837996, 50.57471264
714.5237338, 50.57471264
714.9636681, 51.14942529
715.4036024, 51.14942529
715.8435366, 51.14942529
716.2834709, 51.72413793
716.7234052, 51.72413793
717.1633395, 51.72413793
717.6032737, 52.29885057
718.043208, 52.29885057
718.4831423, 52.29885057
718.9230765, 52.29885057
719.3630108, 52.87356322
719.8029451, 52.87356322
720.2428793, 52.87356322
720.6828136, 53.44827586
721.1227479, 53.44827586
721.5626822, 53.44827586
722.0026164, 54.02298851
722.4425507, 54.02298851
722.882485, 54.02298851
723.3224192, 54.59770115
723.7623535, 54.59770115
724.2022878, 54.59770115
724.6422221, 55.17241379
725.0821563, 55.17241379
725.5220906, 55.74712644
725.9620249, 56.89655172
726.4019591, 58.62068966
726.8418934, 60.91954023
727.2818277, 62.06896552
727.7217619, 62.06896552
728.1616962, 62.06896552
728.6016305, 62.06896552
729.0415648, 62.06896552
729.481499, 62.06896552
729.9214333, 58.62068966
730.3613676, 59.1954023
730.8013018, 59.1954023
731.2412361, 62.06896552
731.6811704, 63.2183908
732.1211047, 63.2183908
732.5610389, 63.2183908
733.0009732, 63.2183908
733.4409075, 63.2183908
733.8808417, 62.06896552
734.320776, 62.06896552
734.7607103, 62.06896552
735.2006445, 62.06896552
735.6405788, 62.06896552
736.0805131, 62.06896552
736.5204474, 62.06896552
736.9603816, 62.06896552
737.4003159, 62.06896552
737.8402502, 62.06896552
738.2801844, 62.06896552
738.7201187, 62.06896552
739.160053, 61.49425287
739.5999873, 56.89655172
740.0399215, 56.89655172
740.4798558, 62.64367816
740.9197901, 64.94252874
741.3597243, 64.94252874
741.7996586, 64.94252874
742.2395929, 64.94252874
742.6795271, 68.3908046
743.1194614, 68.96551724
743.5593957, 68.96551724
743.99933, 68.96551724
744.4392642, 68.96551724
744.8791985, 68.96551724
745.3191328, 67.24137931
745.759067, 67.24137931
746.1990013, 67.24137931
746.6389356, 66.09195402
747.0788699, 66.09195402
747.5188041, 65.51724138
747.9587384, 64.94252874
748.3986727, 64.36781609
748.8386069, 64.36781609
749.2785412, 63.2183908
749.7184755, 63.2183908
750.1584097, 52.29885057
750.598344, 55.17241379
751.0382783, 55.74712644
751.4782126, 56.32183908
751.9181468, 56.89655172
752.3580811, 57.47126437
752.7980154, 62.64367816
753.2379496, 62.64367816
753.6778839, 64.94252874
754.1178182, 64.94252874
754.5577525, 64.94252874
754.9976867, 65.51724138
755.437621, 65.51724138
755.8775553, 65.51724138
756.3174895, 65.51724138
756.7574238, 65.51724138
757.1973581, 65.51724138
757.6372923, 65.51724138
758.0772266, 65.51724138
758.5171609, 64.94252874
758.9570952, 64.36781609
759.3970294, 64.36781609
759.8369637, 63.79310345
760.276898, 63.2183908
760.7168322, 60.91954023
761.1567665, 60.91954023
761.5967008, 60.34482759
762.0366351, 59.77011494
762.4765693, 60.34482759
762.9165036, 61.49425287
763.3564379, 61.49425287
763.7963721, 62.06896552
764.2363064, 63.2183908
764.6762407, 63.2183908
765.1161749, 63.79310345
765.5561092, 64.36781609
765.9960435, 64.94252874
766.4359778, 65.51724138
766.875912, 66.09195402
767.3158463, 72.98850575
767.7557806, 73.56321839
768.1957148, 73.56321839
768.6356491, 73.56321839
769.0755834, 74.71264368
769.5155177, 75.28735632
769.9554519, 75.86206897
770.3953862, 75.86206897
770.8353205, 75.86206897
771.2752547, 76.43678161
771.715189, 77.01149425
772.1551233, 77.5862069
772.5950575, 77.5862069
773.0349918, 78.16091954
773.4749261, 78.16091954
773.9148604, 78.16091954
774.3547946, 78.73563218
774.7947289, 78.73563218
775.2346632, 78.73563218
775.6745974, 78.73563218
776.1145317, 78.73563218
776.554466, 78.73563218
776.9944003, 78.73563218
777.4343345, 78.73563218
777.8742688, 78.73563218
778.3142031, 78.73563218
778.7541373, 78.16091954
779.1940716, 78.16091954
779.6340059, 78.16091954
780.0739401, 79.31034483
780.5138744, 81.6091954
780.9538087, 83.90804598
781.393743, 83.90804598
781.8336772, 85.63218391
782.2736115, 88.50574713
782.7135458, 92.52873563
783.15348, 96.55172414
783.5934143, 97.70114943
784.0333486, 97.70114943
784.4732829, 97.70114943
784.9132171, 97.70114943
785.3531514, 97.70114943
785.7930857, 94.82758621
786.2330199, 94.82758621
786.6729542, 94.82758621
787.1128885, 95.97701149
787.5528227, 95.97701149
787.992757, 98.85057471
788.4326913, 100.5747126
788.8726256, 102.2988506
789.3125598, 104.0229885
789.7524941, 105.7471264
790.1924284, 107.4712644
790.6323626, 108.6206897
791.0722969, 108.6206897
791.5122312, 108.6206897
791.9521655, 108.6206897
792.3920997, 108.6206897
792.832034, 108.6206897
793.2719683, 108.045977
793.7119025, 108.045977
794.1518368, 107.4712644
794.5917711, 107.4712644
795.0317053, 110.3448276
795.4716396, 110.3448276
795.9115739, 110.3448276
796.3515082, 111.4942529
796.7914424, 111.4942529
797.2313767, 112.0689655
797.671311, 112.0689655
798.1112452, 112.0689655
798.5511795, 112.6436782
798.9911138, 112.6436782
799.4310481, 112.6436782
799.8709823, 113.2183908
800.3109166, 113.2183908
800.7508509, 113.2183908
801.1907851, 113.2183908
801.6307194, 113.2183908
802.0706537, 112.6436782
802.5105879, 113.7931034
802.9505222, 114.9425287
803.3904565, 114.9425287
803.8303908, 115.5172414
804.270325, 115.5172414
804.7102593, 115.5172414
805.1501936, 115.5172414
805.5901278, 115.5172414
806.0300621, 114.9425287
806.4699964, 114.9425287
806.9099307, 114.9425287
807.3498649, 113.7931034
807.7897992, 112.0689655
808.2297335, 110.3448276
808.6696677, 108.6206897
809.109602, 108.6206897
809.5495363, 108.045977
809.9894705, 107.4712644
810.4294048, 106.8965517
810.8693391, 106.3218391
811.3092734, 105.7471264
811.7492076, 105.7471264
812.1891419, 104.5977011
812.6290762, 104.5977011
813.0690104, 104.5977011
813.5089447, 104.5977011
813.948879, 104.0229885
814.3888133, 104.0229885
814.8287475, 104.0229885
815.2686818, 104.0229885
815.7086161, 104.0229885
816.1485503, 104.0229885
816.5884846, 104.0229885
817.0284189, 104.0229885
817.4683531, 104.0229885
817.9082874, 104.0229885
818.3482217, 104.0229885
818.788156, 104.0229885
819.2280902, 104.0229885
819.6680245, 104.0229885
820.1079588, 104.0229885
820.547893, 104.0229885
820.9878273, 104.0229885
821.4277616, 104.0229885
821.8676959, 104.0229885
822.3076301, 104.0229885
822.7475644, 104.0229885
823.1874987, 103.4482759
823.6274329, 102.2988506
824.0673672, 101.7241379
824.5073015, 101.1494253
824.9472357, 101.1494253
825.38717, 101.1494253
825.8271043, 101.1494253
826.2670386, 101.1494253
826.7069728, 101.1494253
827.1469071, 101.1494253
827.5868414, 100
828.0267756, 98.85057471
828.4667099, 97.70114943
828.9066442, 96.55172414
829.3465785, 95.97701149
829.7865127, 95.40229885
830.226447, 94.82758621
830.6663813, 94.25287356
831.1063155, 94.82758621
831.5462498, 94.82758621
831.9861841, 95.97701149
832.4261184, 96.55172414
832.8660526, 96.55172414
833.3059869, 96.55172414
833.7459212, 96.55172414
834.1858554, 96.55172414
834.6257897, 96.55172414
835.065724, 95.40229885
835.5056582, 94.82758621
835.9455925, 94.82758621
836.3855268, 94.82758621
836.8254611, 94.25287356
837.2653953, 94.25287356
837.7053296, 94.25287356
838.1452639, 93.67816092
838.5851981, 93.10344828
839.0251324, 92.52873563
839.4650667, 94.82758621
839.905001, 94.82758621
840.3449352, 94.82758621
840.7848695, 94.82758621
841.2248038, 94.82758621
841.664738, 94.82758621
842.1046723, 94.82758621
842.5446066, 93.10344828
842.9845408, 91.37931034
843.4244751, 86.7816092
843.8644094, 85.05747126
844.3043437, 85.05747126
844.7442779, 85.05747126
845.1842122, 78.73563218
845.6241465, 78.73563218
846.0640807, 78.73563218
846.504015, 80.45977011
846.9439493, 81.03448276
847.3838836, 81.6091954
847.8238178, 83.33333333
848.2637521, 83.33333333
848.7036864, 83.33333333
849.1436206, 83.33333333
849.5835549, 83.33333333
850.0234892, 82.18390805
850.4634234, 81.6091954
850.9033577, 81.03448276
851.343292, 79.88505747
851.7832263, 77.01149425
852.2231605, 77.01149425
852.6630948, 75.28735632
853.1030291, 73.56321839
853.5429633, 72.4137931
853.9828976, 71.26436782
854.4228319, 71.26436782
854.8627662, 71.26436782
855.3027004, 71.26436782
855.7426347, 70.68965517
856.182569, 70.68965517
856.6225032, 70.11494253
857.0624375, 69.54022989
857.5023718, 69.54022989
857.942306, 68.96551724
858.3822403, 68.3908046
858.8221746, 67.81609195
859.2621089, 67.24137931
859.7020431, 67.24137931
860.1419774, 67.24137931
860.5819117, 67.81609195
861.0218459, 67.81609195
861.4617802, 68.3908046
861.9017145, 68.3908046
862.3416488, 68.3908046
862.781583, 68.96551724
863.2215173, 68.96551724
863.6614516, 68.96551724
864.1013858, 68.96551724
864.5413201, 68.96551724
864.9812544, 66.66666667
865.4211886, 66.66666667
865.8611229, 66.66666667
866.3010572, 65.51724138
866.7409915, 65.51724138
867.1809257, 65.51724138
867.62086, 65.51724138
868.0607943, 59.77011494
868.5007285, 59.1954023
868.9406628, 59.1954023
869.3805971, 58.62068966
869.8205314, 58.62068966
870.2604656, 58.62068966
870.7003999, 58.04597701
871.1403342, 58.04597701
871.5802684, 57.47126437
872.0202027, 57.47126437
872.460137, 57.47126437
872.9000712, 56.89655172
873.3400055, 56.32183908
873.7799398, 56.32183908
874.2198741, 55.74712644
874.6598083, 55.74712644
875.0997426, 55.17241379
875.5396769, 55.17241379
875.9796111, 54.59770115
876.4195454, 54.59770115
876.8594797, 54.02298851
877.299414, 54.02298851
877.7393482, 53.44827586
878.1792825, 52.87356322
878.6192168, 52.87356322
879.059151, 52.29885057
879.4990853, 52.29885057
879.9390196, 51.72413793
880.3789538, 51.72413793
880.8188881, 51.72413793
881.2588224, 51.14942529
881.6987567, 51.14942529
882.1386909, 50.57471264
882.5786252, 50.57471264
883.0185595, 50
883.4584937, 50
883.898428, 50
884.3383623, 49.42528736
884.7782966, 49.42528736
885.2182308, 49.42528736
885.6581651, 48.85057471
886.0980994, 48.85057471
886.5380336, 49.42528736
886.9779679, 49.42528736
887.4179022, 49.42528736
887.8578364, 49.42528736
888.2977707, 49.42528736
888.737705, 48.85057471
889.1776393, 48.85057471
889.6175735, 48.85057471
890.0575078, 48.27586207
890.4974421, 47.70114943
890.9373763, 47.70114943
891.3773106, 47.12643678
891.8172449, 47.12643678
892.2571792, 47.12643678
892.6971134, 46.55172414
893.1370477, 46.55172414
893.576982, 46.55172414
894.0169162, 46.55172414
894.4568505, 45.97701149
894.8967848, 46.55172414
895.336719, 47.70114943
895.7766533, 50.57471264
896.2165876, 52.29885057
896.6565219, 52.29885057
897.0964561, 52.29885057
897.5363904, 52.29885057
897.9763247, 52.29885057
898.4162589, 52.29885057
898.8561932, 51.72413793
899.2961275, 51.14942529
899.7360618, 50
900.175996, 48.27586207
900.6159303, 45.97701149
901.0558646, 45.97701149
901.4957988, 45.97701149
901.9357331, 45.97701149
902.3756674, 45.97701149
902.8156016, 45.97701149
903.2555359, 45.97701149
903.6954702, 45.97701149
904.1354045, 45.97701149
904.5753387, 45.97701149
905.015273, 39.65517241
905.4552073, 39.08045977
905.8951415, 38.50574713
906.3350758, 37.93103448
906.7750101, 37.35632184
907.2149444, 36.7816092
907.6548786, 36.20689655
908.0948129, 35.63218391
908.5347472, 35.05747126
908.9746814, 34.48275862
909.4146157, 33.90804598
909.85455, 33.90804598
910.2944842, 33.33333333
910.7344185, 33.33333333
911.1743528, 33.33333333
911.6142871, 32.75862069
912.0542213, 32.75862069
912.4941556, 32.75862069
912.9340899, 33.33333333
913.3740241, 33.33333333
913.8139584, 33.90804598
914.2538927, 34.48275862
914.693827, 37.35632184
915.1337612, 37.93103448
915.5736955, 39.08045977
916.0136298, 39.08045977
916.453564, 39.65517241
916.8934983, 39.65517241
917.3334326, 39.65517241
917.7733668, 39.65517241
918.2133011, 39.65517241
918.6532354, 39.65517241
919.0931697, 39.65517241
919.5331039, 39.08045977
919.9730382, 38.50574713
920.4129725, 38.50574713
920.8529067, 38.50574713
921.292841, 37.93103448
921.7327753, 37.35632184
922.1727096, 33.90804598
922.6126438, 33.33333333
923.0525781, 32.75862069
923.4925124, 32.75862069
923.9324466, 32.75862069
924.3723809, 32.75862069
924.8123152, 33.33333333
925.2522494, 33.33333333
925.6921837, 33.33333333
926.132118, 33.33333333
926.5720523, 33.90804598
927.0119865, 33.90804598
927.4519208, 33.90804598
927.8918551, 33.90804598
928.3317893, 33.90804598
928.7717236, 33.33333333
929.2116579, 32.75862069
929.6515922, 32.75862069
930.0915264, 33.33333333
930.5314607, 33.33333333
930.971395, 33.90804598
931.4113292, 33.90804598
931.8512635, 35.05747126
932.2911978, 35.05747126
932.731132, 35.05747126
933.1710663, 36.20689655
933.6110006, 37.35632184
934.0509349, 37.35632184
934.4908691, 37.35632184
934.9308034, 37.35632184
935.3707377, 37.35632184
935.8106719, 36.20689655
936.2506062, 36.20689655
936.6905405, 35.63218391
937.1304748, 35.05747126
937.570409, 35.05747126
938.0103433, 35.63218391
938.4502776, 35.63218391
938.8902118, 36.20689655
939.3301461, 36.20689655
939.7700804, 36.7816092
940.2100146, 37.35632184
940.6499489, 37.35632184
941.0898832, 37.93103448
941.5298175, 37.93103448
941.9697517, 38.50574713
942.409686, 38.50574713
942.8496203, 39.08045977
943.2895545, 39.08045977
943.7294888, 39.08045977
944.1694231, 40.22988506
944.6093574, 40.22988506
945.0492916, 40.22988506
945.4892259, 40.22988506
945.9291602, 40.22988506
946.3690944, 42.52873563
946.8090287, 42.52873563
947.248963, 42.52873563
947.6888972, 43.10344828
948.1288315, 44.82758621
948.5687658, 45.40229885
949.0087001, 45.40229885
949.4486343, 45.40229885
949.8885686, 45.97701149
950.3285029, 45.97701149
950.7684371, 45.97701149
951.2083714, 45.97701149
951.6483057, 45.97701149
952.08824, 45.97701149
952.5281742, 40.22988506
952.9681085, 40.22988506
953.4080428, 40.22988506
953.847977, 36.7816092
954.2879113, 35.63218391
954.7278456, 35.63218391
955.1677798, 40.22988506
955.6077141, 40.22988506
956.0476484, 40.22988506
956.4875827, 40.22988506
956.9275169, 45.97701149
957.3674512, 45.97701149
957.8073855, 45.97701149
958.2473197, 45.97701149
958.687254, 45.97701149
959.1271883, 45.40229885
959.5671226, 45.40229885
960.0070568, 45.40229885
960.4469911, 44.82758621
960.8869254, 40.8045977
961.3268596, 40.22988506
961.7667939, 39.65517241
962.2067282, 39.65517241
962.6466624, 39.65517241
963.0865967, 39.08045977
963.526531, 39.08045977
963.9664653, 39.08045977
964.4063995, 38.50574713
964.8463338, 37.93103448
965.2862681, 37.93103448
965.7262023, 37.35632184
966.1661366, 36.7816092
966.6060709, 36.20689655
967.0460052, 36.20689655
967.4859394, 35.63218391
967.9258737, 35.05747126
968.365808, 34.48275862
968.8057422, 32.18390805
969.2456765, 32.18390805
969.6856108, 32.18390805
970.125545, 32.75862069
970.5654793, 33.33333333
971.0054136, 33.90804598
971.4453479, 35.63218391
971.8852821, 39.65517241
972.3252164, 43.67816092
972.7651507, 45.97701149
973.2050849, 47.12643678
973.6450192, 47.12643678
974.0849535, 47.12643678
974.5248878, 47.12643678
974.964822, 47.12643678
975.4047563, 46.55172414
975.8446906, 46.55172414
976.2846248, 46.55172414
976.7245591, 46.55172414
977.1644934, 46.55172414
977.6044276, 45.97701149
978.0443619, 45.97701149
978.4842962, 45.97701149
978.9242305, 45.40229885
979.3641647, 46.55172414
979.804099, 49.42528736
980.2440333, 51.72413793
980.6839675, 52.87356322
981.1239018, 52.87356322
981.5638361, 52.87356322
982.0037704, 52.87356322
982.4437046, 54.59770115
982.8836389, 55.17241379
983.3235732, 55.17241379
983.7635074, 55.17241379
984.2034417, 55.17241379
984.643376, 55.17241379
985.0833102, 53.44827586
985.5232445, 52.29885057
985.9631788, 50.57471264
986.4031131, 45.40229885
986.8430473, 45.40229885
987.2829816, 45.97701149
987.7229159, 45.97701149
988.1628501, 45.97701149
988.6027844, 45.97701149
989.0427187, 45.97701149
989.482653, 46.55172414
989.9225872, 46.55172414
990.3625215, 46.55172414
990.8024558, 46.55172414
991.24239, 46.55172414
991.6823243, 50
992.1222586, 50
992.5621928, 51.72413793
993.0021271, 52.87356322
993.4420614, 52.87356322
993.8819957, 52.87356322
994.3219299, 52.87356322
994.7618642, 52.87356322
995.2017985, 54.02298851
995.6417327, 54.59770115
996.081667, 54.59770115
996.5216013, 54.59770115
996.9615356, 54.59770115
997.4014698, 54.59770115
997.8414041, 53.44827586
998.2813384, 51.72413793
998.7212726, 48.85057471
999.1612069, 43.67816092
999.6011412, 42.52873563
1000.041075, 41.95402299
1000.48101, 40.8045977
1000.920944, 39.65517241
1001.360878, 39.65517241
1001.800813, 39.65517241
1002.240747, 39.08045977
1002.680681, 39.08045977
1003.120615, 39.08045977
1003.56055, 37.93103448
1004.000484, 37.93103448
1004.440418, 37.93103448
1004.880352, 37.93103448
1005.320287, 37.93103448
1005.760221, 37.35632184
1006.200155, 37.35632184
1006.64009, 33.90804598
1007.080024, 33.90804598
1007.519958, 33.33333333
1007.959892, 33.33333333
1008.399827, 32.75862069
1008.839761, 32.75862069
1009.279695, 32.75862069
1009.719629, 32.75862069
1010.159564, 32.75862069
1010.599498, 31.6091954
1011.039432, 29.88505747
1011.479366, 29.88505747
1011.919301, 29.88505747
1012.359235, 29.31034483
1012.799169, 28.73563218
1013.239104, 25.86206897
1013.679038, 25.28735632
1014.118972, 24.71264368
1014.558906, 24.13793103
1014.998841, 24.13793103
1015.438775, 24.13793103
1015.878709, 24.71264368
1016.318643, 25.28735632
1016.758578, 25.28735632
1017.198512, 25.28735632
1017.638446, 25.86206897
1018.078381, 25.86206897
1018.518315, 25.86206897
1018.958249, 25.86206897
1019.398183, 25.86206897
1019.838118, 25.28735632
1020.278052, 25.28735632
1020.717986, 25.28735632
1021.15792, 24.71264368
1021.597855, 24.71264368
1022.037789, 24.71264368
1022.477723, 24.71264368
1022.917658, 24.71264368
1023.357592, 24.71264368
1023.797526, 25.28735632
1024.23746, 26.43678161
1024.677395, 26.43678161
1025.117329, 26.43678161
1025.557263, 26.43678161
1025.997197, 26.43678161
1026.437132, 26.43678161
1026.877066, 26.43678161
1027.317, 25.86206897
1027.756934, 25.28735632
1028.196869, 24.71264368
1028.636803, 24.71264368
1029.076737, 24.13793103
1029.516672, 22.98850575
1029.956606, 22.98850575
1030.39654, 22.4137931
1030.836474, 21.83908046
1031.276409, 21.83908046
1031.716343, 21.83908046
1032.156277, 21.83908046
1032.596211, 22.4137931
1033.036146, 22.4137931
1033.47608, 22.98850575
1033.916014, 22.98850575
1034.355949, 25.28735632
1034.795883, 25.28735632
1035.235817, 25.86206897
1035.675751, 25.86206897
1036.115686, 25.86206897
1036.55562, 25.86206897
1036.995554, 25.86206897
1037.435488, 24.71264368
1037.875423, 24.71264368
1038.315357, 24.71264368
1038.755291, 24.71264368
1039.195226, 24.71264368
1039.63516, 24.71264368
1040.075094, 24.13793103
1040.515028, 24.71264368
1040.954963, 24.71264368
1041.394897, 24.71264368
1041.834831, 24.71264368
1042.274765, 25.28735632
1042.7147, 25.28735632
1043.154634, 25.28735632
1043.594568, 25.86206897
1044.034503, 25.86206897
1044.474437, 25.86206897
1044.914371, 26.43678161
1045.354305, 26.43678161
1045.79424, 26.43678161
1046.234174, 26.43678161
1046.674108, 27.01149425
1047.114042, 27.01149425
1047.553977, 27.01149425
1047.993911, 27.5862069
1048.433845, 27.5862069
1048.873779, 27.5862069
1049.313714, 28.16091954
1049.753648, 28.16091954
1050.193582, 28.16091954
1050.633517, 28.16091954
1051.073451, 28.16091954
1051.513385, 28.16091954
1051.953319, 28.16091954
1052.393254, 28.16091954
1052.833188, 28.16091954
1053.273122, 27.5862069
1053.713056, 27.5862069
1054.152991, 25.28735632
1054.592925, 24.71264368
1055.032859, 23.56321839
1055.472794, 23.56321839
1055.912728, 23.56321839
1056.352662, 26.43678161
1056.792596, 26.43678161
1057.232531, 28.16091954
1057.672465, 28.73563218
1058.112399, 28.73563218
1058.552333, 29.31034483
1058.992268, 29.31034483
1059.432202, 29.88505747
1059.872136, 29.88505747
1060.312071, 29.88505747
1060.752005, 29.88505747
1061.191939, 29.88505747
1061.631873, 29.31034483
1062.071808, 28.73563218
1062.511742, 25.28735632
1062.951676, 24.71264368
1063.39161, 24.71264368
1063.831545, 25.28735632
1064.271479, 25.86206897
1064.711413, 25.86206897
1065.151347, 26.43678161
1065.591282, 27.01149425
1066.031216, 27.01149425
1066.47115, 28.16091954
1066.911085, 28.16091954
1067.351019, 28.16091954
1067.790953, 28.16091954
1068.230887, 28.16091954
1068.670822, 28.16091954
1069.110756, 28.16091954
1069.55069, 27.01149425
1069.990624, 26.43678161
1070.430559, 25.86206897
1070.870493, 25.86206897
1071.310427, 26.43678161
1071.750362, 26.43678161
1072.190296, 26.43678161
1072.63023, 26.43678161
1073.070164, 26.43678161
1073.510099, 25.28735632
1073.950033, 24.13793103
1074.389967, 23.56321839
1074.829901, 23.56321839
1075.269836, 23.56321839
1075.70977, 21.26436782
1076.149704, 21.26436782
1076.589639, 21.26436782
1077.029573, 20.11494253
1077.469507, 19.54022989
1077.909441, 17.81609195
1078.349376, 20.11494253
1078.78931, 20.11494253
1079.229244, 20.11494253
1079.669178, 20.11494253
1080.109113, 20.11494253
1080.549047, 17.81609195
1080.988981, 17.81609195
1081.428916, 17.81609195
1081.86885, 16.09195402
1082.308784, 15.51724138
1082.748718, 14.94252874
1083.188653, 14.36781609
1083.628587, 14.36781609
1084.068521, 14.36781609
1084.508455, 14.36781609
1084.94839, 14.36781609
1085.388324, 14.36781609
1085.828258, 13.79310345
1086.268192, 13.79310345
1086.708127, 13.79310345
1087.148061, 13.2183908
1087.587995, 13.2183908
1088.02793, 13.2183908
1088.467864, 12.64367816
1088.907798, 12.64367816
1089.347732, 12.06896552
1089.787667, 12.06896552
1090.227601, 12.06896552
1090.667535, 12.64367816
1091.107469, 12.64367816
1091.547404, 12.64367816
1091.987338, 12.64367816
1092.427272, 12.64367816
1092.867207, 12.64367816
1093.307141, 12.64367816
1093.747075, 12.06896552
1094.187009, 12.06896552
1094.626944, 12.06896552
1095.066878, 11.49425287
1095.506812, 11.49425287
1095.946746, 11.49425287
1096.386681, 11.49425287
1096.826615, 11.49425287
1097.266549, 11.49425287
1097.706484, 13.2183908
1098.146418, 13.2183908
1098.586352, 13.2183908
1099.026286, 13.2183908
1099.466221, 13.2183908
1099.906155, 12.64367816
1100.346089, 12.64367816
1100.786023, 12.64367816
1101.225958, 12.64367816
1101.665892, 11.49425287
1102.105826, 10.91954023
1102.54576, 10.34482759
1102.985695, 9.770114943
1103.425629, 9.195402299
1103.865563, 8.620689655
1104.305498, 8.620689655
1104.745432, 8.045977011
1105.185366, 8.620689655
1105.6253, 8.620689655
1106.065235, 8.620689655
1106.505169, 8.620689655
1106.945103, 8.620689655
1107.385037, 10.91954023
1107.824972, 10.91954023
1108.264906, 10.91954023
1108.70484, 10.91954023
1109.144775, 10.91954023
1109.584709, 10.91954023
1110.024643, 10.91954023
1110.464577, 8.620689655
1110.904512, 8.620689655
1111.344446, 8.620689655
1111.78438, 8.045977011
1112.224314, 8.620689655
1112.664249, 8.620689655
1113.104183, 9.195402299
1113.544117, 9.770114943
1113.984052, 9.770114943
1114.423986, 10.34482759
1114.86392, 10.91954023
1115.303854, 10.91954023
1115.743789, 10.91954023
1116.183723, 10.91954023
1116.623657, 10.91954023
1117.063591, 10.91954023
1117.503526, 10.34482759
1117.94346, 9.770114943
1118.383394, 9.195402299
1118.823329, 8.045977011
1119.263263, 6.896551724
1119.703197, 7.471264368
1120.143131, 7.471264368
1120.583066, 7.471264368
1121.023, 7.471264368
1121.462934, 7.471264368
1121.902868, 7.471264368
1122.342803, 6.896551724
1122.782737, 6.896551724
1123.222671, 6.896551724
1123.662605, 6.896551724
1124.10254, 6.896551724
1124.542474, 5.747126437
1124.982408, 6.32183908
1125.422343, 6.32183908
1125.862277, 6.896551724
1126.302211, 6.896551724
1126.742145, 6.896551724
1127.18208, 6.896551724
1127.622014, 7.471264368
1128.061948, 7.471264368
1128.501882, 7.471264368
1128.941817, 7.471264368
1129.381751, 8.045977011
1129.821685, 8.045977011
1130.26162, 8.620689655
1130.701554, 8.620689655
1131.141488, 9.195402299
1131.581422, 9.195402299
1132.021357, 9.195402299
1132.461291, 9.195402299
1132.901225, 9.195402299
1133.341159, 9.195402299
1133.781094, 9.195402299
1134.221028, 9.195402299
1134.660962, 9.195402299
1135.100897, 9.195402299
1135.540831, 8.620689655
1135.980765, 8.620689655
1136.420699, 8.045977011
1136.860634, 8.045977011
1137.300568, 7.471264368
1137.740502, 7.471264368
1138.180436, 6.896551724
1138.620371, 6.896551724
1139.060305, 6.896551724
1139.500239, 6.896551724
1139.940173, 6.32183908
1140.380108, 5.747126437
1140.820042, 4.022988506
1141.259976, 2.873563218
1141.699911, 2.298850575
1142.139845, 3.448275862
1142.579779, 4.597701149
1143.019713, 5.747126437
1143.459648, 6.32183908
1143.899582, 6.896551724
1144.339516, 7.471264368
1144.77945, 7.471264368
1145.219385, 8.045977011
1145.659319, 10.34482759
1146.099253, 10.34482759
1146.539188, 10.34482759
1146.979122, 10.34482759
1147.419056, 10.34482759
1147.85899, 8.045977011
1148.298925, 8.045977011
1148.738859, 7.471264368
1149.178793, 7.471264368
1149.618727, 7.471264368
1150.058662, 7.471264368
1150.498596, 6.896551724
1150.93853, 6.32183908
1151.378465, 6.896551724
1151.818399, 8.620689655
1152.258333, 9.195402299
1152.698267, 9.770114943
1153.138202, 9.770114943
1153.578136, 10.34482759
1154.01807, 10.34482759
1154.458004, 10.34482759
1154.897939, 10.34482759
1155.337873, 10.34482759
1155.777807, 9.770114943
1156.217742, 9.770114943
1156.657676, 9.770114943
1157.09761, 9.770114943
1157.537544, 9.770114943
1157.977479, 9.770114943
1158.417413, 9.770114943
1158.857347, 10.91954023
1159.297281, 11.49425287
1159.737216, 11.49425287
1160.17715, 12.64367816
1160.617084, 13.79310345
1161.057018, 13.79310345
1161.496953, 13.79310345
1161.936887, 13.79310345
1162.376821, 13.79310345
1162.816756, 11.49425287
1163.25669, 8.620689655
1163.696624, 6.896551724
1164.136558, 6.896551724
1164.576493, 8.045977011
1165.016427, 9.195402299
1165.456361, 10.34482759
1165.896295, 11.49425287
1166.33623, 12.64367816
1166.776164, 12.64367816
1167.216098, 13.2183908
1167.656033, 13.2183908
1168.095967, 13.2183908
1168.535901, 13.2183908
1168.975835, 13.2183908
1169.41577, 12.64367816
1169.855704, 10.91954023
1170.295638, 9.195402299
1170.735572, 8.045977011
1171.175507, 6.896551724
1171.615441, 5.747126437
1172.055375, 4.597701149
1172.49531, 4.597701149
1172.935244, 3.448275862
1173.375178, 3.448275862
1173.815112, 2.873563218
1174.255047, 2.298850575
1174.694981, 1.724137931
1175.134915, 0.574712644
1175.574849, 0.555555556
1176.014784, 0.536398467
1176.454718, 0.517241379
1176.894652, 0.498084291
1177.334586, 0.478927203
1177.774521, 0.459770115
1178.214455, 0.440613027
1178.654389, 0.421455939
1179.094324, 0.402298851
1179.534258, 0.383141762
1179.974192, 0.363984674
1180.414126, 0.344827586
1180.854061, 0.325670498
1181.293995, 0.30651341
1181.733929, 0.287356322
1182.173863, 0.268199234
1182.613798, 0.249042146
1183.053732, 0.229885057
1183.493666, 0.210727969
1183.933601, 0.191570881
1184.373535, 0.172413793
1184.813469, 0.153256705
1185.253403, 0.134099617
1185.693338, 0.114942529
1186.133272, 0.095785441
1186.573206, 0.076628352
1187.01314, 0.057471264
1187.453075, 0.038314176
1187.893009, 0.019157088
