##NAMES=Hibbingite
##MID=0030003
##IDEAL CHEMISTRY=Fe_2_O_3_H_3_Cl
##LOCALITY=x
##OWNER=PAPER_Kodera2022
##SOURCE=x
##DESCRIPTION=x
##STATUS=clearly identified
##URL=x
##MEASURED CHEMISTRY=Fe_2_O_3_H_3_Cl
3500.024753, 41.12038141
3500.071678, 41.12038141
3500.118603, 41.12038141
3500.165528, 41.12038141
3500.212453, 41.12038141
3500.259378, 41.12038141
3500.306303, 41.12038141
3500.353228, 39.33253874
3500.400153, 39.33253874
3500.447078, 39.33253874
3500.494003, 33.96901073
3500.540928, 33.96901073
3500.587853, 41.12038141
3500.634778, 41.12038141
3500.681703, 41.12038141
3500.728628, 41.12038141
3500.775553, 41.12038141
3500.822478, 41.12038141
3500.869403, 41.12038141
3500.916328, 41.12038141
3500.963253, 31.5852205
3501.010178, 31.5852205
3501.057103, 31.5852205
3501.104028, 31.5852205
3501.150952, 31.5852205
3501.197877, 31.5852205
3501.244802, 31.5852205
3501.291727, 31.5852205
3501.338652, 31.5852205
3501.385577, 31.5852205
3501.432502, 31.5852205
3501.479427, 31.5852205
3501.526352, 31.5852205
3501.573277, 31.5852205
3501.620202, 31.5852205
3501.667127, 41.12038141
3501.714052, 41.12038141
3501.760977, 41.12038141
3501.807902, 41.12038141
3501.854827, 41.12038141
3501.901752, 41.12038141
3501.948677, 41.12038141
3501.995602, 41.12038141
3502.042527, 41.12038141
3502.089452, 41.12038141
3502.136377, 32.18116806
3502.183302, 32.18116806
3502.230227, 41.12038141
3502.277152, 41.12038141
3502.324077, 41.12038141
3502.371002, 41.12038141
3502.417926, 41.12038141
3502.464851, 41.12038141
3502.511776, 41.12038141
3502.558701, 41.12038141
3502.605626, 41.12038141
3502.652551, 41.12038141
3502.699476, 41.12038141
3502.746401, 41.12038141
3502.793326, 41.12038141
3502.840251, 41.12038141
3502.887176, 41.12038141
3502.934101, 41.12038141
3502.981026, 41.12038141
3503.027951, 41.12038141
3503.074876, 41.12038141
3503.121801, 41.12038141
3503.168726, 32.18116806
3503.215651, 32.18116806
3503.262576, 32.18116806
3503.309501, 41.12038141
3503.356426, 41.12038141
3503.403351, 41.12038141
3503.450276, 41.12038141
3503.497201, 41.12038141
3503.544126, 41.12038141
3503.591051, 41.12038141
3503.637976, 41.12038141
3503.6849, 41.12038141
3503.731825, 41.12038141
3503.77875, 41.12038141
3503.825675, 41.12038141
3503.8726, 41.12038141
3503.919525, 41.12038141
3503.96645, 41.12038141
3504.013375, 41.12038141
3504.0603, 41.12038141
3504.107225, 41.71632896
3504.15415, 41.71632896
3504.201075, 41.71632896
3504.248, 41.71632896
3504.294925, 41.71632896
3504.34185, 41.71632896
3504.388775, 41.71632896
3504.4357, 41.71632896
3504.482625, 41.71632896
3504.52955, 41.71632896
3504.576475, 32.77711561
3504.6234, 41.71632896
3504.670325, 41.71632896
3504.71725, 42.31227652
3504.764175, 42.31227652
3504.8111, 42.31227652
3504.858025, 42.31227652
3504.90495, 42.31227652
3504.951875, 42.31227652
3504.998799, 42.31227652
3505.045724, 42.31227652
3505.092649, 42.31227652
3505.139574, 41.12038141
3505.186499, 41.12038141
3505.233424, 41.12038141
3505.280349, 41.12038141
3505.327274, 41.12038141
3505.374199, 41.12038141
3505.421124, 42.90822408
3505.468049, 42.90822408
3505.514974, 42.90822408
3505.561899, 42.90822408
3505.608824, 42.90822408
3505.655749, 42.90822408
3505.702674, 42.90822408
3505.749599, 41.71632896
3505.796524, 43.50417163
3505.843449, 43.50417163
3505.890374, 43.50417163
3505.937299, 43.50417163
3505.984224, 43.50417163
3506.031149, 44.10011919
3506.078074, 44.10011919
3506.124999, 44.10011919
3506.171924, 44.10011919
3506.218849, 44.10011919
3506.265773, 44.69606675
3506.312698, 44.69606675
3506.359623, 44.69606675
3506.406548, 44.69606675
3506.453473, 44.69606675
3506.500398, 44.69606675
3506.547323, 44.69606675
3506.594248, 44.69606675
3506.641173, 44.69606675
3506.688098, 44.69606675
3506.735023, 44.69606675
3506.781948, 44.69606675
3506.828873, 44.69606675
3506.875798, 44.69606675
3506.922723, 44.69606675
3506.969648, 44.69606675
3507.016573, 44.69606675
3507.063498, 44.69606675
3507.110423, 44.69606675
3507.157348, 44.69606675
3507.204273, 44.69606675
3507.251198, 44.10011919
3507.298123, 44.10011919
3507.345048, 44.10011919
3507.391973, 44.10011919
3507.438898, 45.2920143
3507.485823, 45.2920143
3507.532747, 45.2920143
3507.579672, 45.2920143
3507.626597, 45.2920143
3507.673522, 43.50417163
3507.720447, 43.50417163
3507.767372, 44.69606675
3507.814297, 44.69606675
3507.861222, 44.69606675
3507.908147, 44.69606675
3507.955072, 44.69606675
3508.001997, 44.69606675
3508.048922, 42.90822408
3508.095847, 44.10011919
3508.142772, 44.10011919
3508.189697, 44.10011919
3508.236622, 44.10011919
3508.283547, 44.10011919
3508.330472, 44.10011919
3508.377397, 44.10011919
3508.424322, 44.10011919
3508.471247, 43.50417163
3508.518172, 43.50417163
3508.565097, 43.50417163
3508.612022, 43.50417163
3508.658947, 43.50417163
3508.705872, 43.50417163
3508.752797, 43.50417163
3508.799722, 43.50417163
3508.846646, 43.50417163
3508.893571, 43.50417163
3508.940496, 43.50417163
3508.987421, 42.31227652
3509.034346, 42.31227652
3509.081271, 42.31227652
3509.128196, 44.10011919
3509.175121, 44.10011919
3509.222046, 44.10011919
3509.268971, 44.10011919
3509.315896, 44.10011919
3509.362821, 44.10011919
3509.409746, 44.10011919
3509.456671, 44.10011919
3509.503596, 44.69606675
3509.550521, 44.69606675
3509.597446, 44.69606675
3509.644371, 44.69606675
3509.691296, 44.69606675
3509.738221, 44.69606675
3509.785146, 44.69606675
3509.832071, 44.69606675
3509.878996, 43.50417163
3509.925921, 45.2920143
3509.972846, 45.2920143
3510.019771, 45.2920143
3510.066696, 45.2920143
3510.11362, 45.2920143
3510.160545, 45.2920143
3510.20747, 45.2920143
3510.254395, 45.2920143
3510.30132, 45.2920143
3510.348245, 45.88796186
3510.39517, 45.88796186
3510.442095, 45.88796186
3510.48902, 45.88796186
3510.535945, 45.88796186
3510.58287, 45.88796186
3510.629795, 45.88796186
3510.67672, 45.88796186
3510.723645, 36.94874851
3510.77057, 45.88796186
3510.817495, 45.88796186
3510.86442, 46.48390942
3510.911345, 46.48390942
3510.95827, 46.48390942
3511.005195, 46.48390942
3511.05212, 46.48390942
3511.099045, 46.48390942
3511.14597, 46.48390942
3511.192895, 46.48390942
3511.23982, 46.48390942
3511.286745, 46.48390942
3511.33367, 37.54469607
3511.380594, 37.54469607
3511.427519, 37.54469607
3511.474444, 37.54469607
3511.521369, 37.54469607
3511.568294, 37.54469607
3511.615219, 37.54469607
3511.662144, 37.54469607
3511.709069, 37.54469607
3511.755994, 47.07985697
3511.802919, 47.07985697
3511.849844, 47.07985697
3511.896769, 47.07985697
3511.943694, 47.07985697
3511.990619, 47.07985697
3512.037544, 47.07985697
3512.084469, 47.07985697
3512.131394, 47.07985697
3512.178319, 47.07985697
3512.225244, 47.07985697
3512.272169, 47.07985697
3512.319094, 47.67580453
3512.366019, 47.67580453
3512.412944, 47.67580453
3512.459869, 47.67580453
3512.506794, 47.67580453
3512.553719, 47.67580453
3512.600644, 47.67580453
3512.647569, 47.67580453
3512.694493, 47.67580453
3512.741418, 47.67580453
3512.788343, 47.67580453
3512.835268, 48.27175209
3512.882193, 48.27175209
3512.929118, 48.27175209
3512.976043, 48.27175209
3513.022968, 48.27175209
3513.069893, 48.27175209
3513.116818, 48.27175209
3513.163743, 48.27175209
3513.210668, 48.27175209
3513.257593, 48.27175209
3513.304518, 48.27175209
3513.351443, 48.27175209
3513.398368, 48.27175209
3513.445293, 39.33253874
3513.492218, 39.33253874
3513.539143, 47.07985697
3513.586068, 47.07985697
3513.632993, 47.07985697
3513.679918, 47.07985697
3513.726843, 47.07985697
3513.773768, 47.07985697
3513.820693, 47.07985697
3513.867618, 48.86769964
3513.914543, 48.86769964
3513.961467, 48.86769964
3514.008392, 48.86769964
3514.055317, 48.86769964
3514.102242, 48.86769964
3514.149167, 48.86769964
3514.196092, 48.86769964
3514.243017, 48.86769964
3514.289942, 48.86769964
3514.336867, 48.86769964
3514.383792, 48.86769964
3514.430717, 48.86769964
3514.477642, 48.86769964
3514.524567, 48.86769964
3514.571492, 48.86769964
3514.618417, 48.86769964
3514.665342, 48.86769964
3514.712267, 48.86769964
3514.759192, 48.86769964
3514.806117, 40.52443385
3514.853042, 40.52443385
3514.899967, 40.52443385
3514.946892, 40.52443385
3514.993817, 40.52443385
3515.040742, 40.52443385
3515.087667, 40.52443385
3515.134592, 40.52443385
3515.181517, 40.52443385
3515.228441, 40.52443385
3515.275366, 40.52443385
3515.322291, 40.52443385
3515.369216, 40.52443385
3515.416141, 40.52443385
3515.463066, 40.52443385
3515.509991, 40.52443385
3515.556916, 40.52443385
3515.603841, 40.52443385
3515.650766, 40.52443385
3515.697691, 40.52443385
3515.744616, 40.52443385
3515.791541, 40.52443385
3515.838466, 40.52443385
3515.885391, 40.52443385
3515.932316, 40.52443385
3515.979241, 40.52443385
3516.026166, 40.52443385
3516.073091, 40.52443385
3516.120016, 40.52443385
3516.166941, 40.52443385
3516.213866, 40.52443385
3516.260791, 40.52443385
3516.307716, 40.52443385
3516.354641, 40.52443385
3516.401566, 40.52443385
3516.448491, 40.52443385
3516.495416, 40.52443385
3516.54234, 40.52443385
3516.589265, 40.52443385
3516.63619, 40.52443385
3516.683115, 40.52443385
3516.73004, 40.52443385
3516.776965, 40.52443385
3516.82389, 40.52443385
3516.870815, 40.52443385
3516.91774, 40.52443385
3516.964665, 40.52443385
3517.01159, 40.52443385
3517.058515, 40.52443385
3517.10544, 40.52443385
3517.152365, 40.52443385
3517.19929, 40.52443385
3517.246215, 40.52443385
3517.29314, 47.67580453
3517.340065, 47.67580453
3517.38699, 47.67580453
3517.433915, 47.67580453
3517.48084, 47.67580453
3517.527765, 47.67580453
3517.57469, 47.67580453
3517.621615, 47.67580453
3517.66854, 47.67580453
3517.715465, 49.4636472
3517.76239, 49.4636472
3517.809314, 49.4636472
3517.856239, 49.4636472
3517.903164, 49.4636472
3517.950089, 49.4636472
3517.997014, 49.4636472
3518.043939, 49.4636472
3518.090864, 49.4636472
3518.137789, 49.4636472
3518.184714, 49.4636472
3518.231639, 49.4636472
3518.278564, 49.4636472
3518.325489, 48.27175209
3518.372414, 48.27175209
3518.419339, 48.27175209
3518.466264, 48.27175209
3518.513189, 48.27175209
3518.560114, 48.27175209
3518.607039, 50.05959476
3518.653964, 50.05959476
3518.700889, 50.05959476
3518.747814, 50.05959476
3518.794739, 50.05959476
3518.841664, 50.05959476
3518.888589, 50.05959476
3518.935514, 50.05959476
3518.982439, 50.05959476
3519.029364, 50.05959476
3519.076288, 50.05959476
3519.123213, 50.05959476
3519.170138, 50.05959476
3519.217063, 48.27175209
3519.263988, 48.27175209
3519.310913, 48.27175209
3519.357838, 48.27175209
3519.404763, 48.27175209
3519.451688, 48.27175209
3519.498613, 48.27175209
3519.545538, 48.27175209
3519.592463, 50.65554231
3519.639388, 50.65554231
3519.686313, 50.65554231
3519.733238, 50.65554231
3519.780163, 50.65554231
3519.827088, 50.65554231
3519.874013, 50.65554231
3519.920938, 50.65554231
3519.967863, 50.65554231
3520.014788, 50.65554231
3520.061713, 50.65554231
3520.108638, 50.65554231
3520.155563, 50.65554231
3520.202488, 50.65554231
3520.249413, 44.69606675
3520.296338, 44.69606675
3520.343263, 44.69606675
3520.390187, 44.69606675
3520.437112, 51.25148987
3520.484037, 51.25148987
3520.530962, 51.25148987
3520.577887, 51.25148987
3520.624812, 51.25148987
3520.671737, 51.25148987
3520.718662, 51.25148987
3520.765587, 51.25148987
3520.812512, 51.25148987
3520.859437, 51.25148987
3520.906362, 51.25148987
3520.953287, 51.25148987
3521.000212, 51.25148987
3521.047137, 51.25148987
3521.094062, 51.25148987
3521.140987, 51.25148987
3521.187912, 51.25148987
3521.234837, 51.25148987
3521.281762, 51.25148987
3521.328687, 51.25148987
3521.375612, 51.25148987
3521.422537, 51.25148987
3521.469462, 51.25148987
3521.516387, 51.25148987
3521.563312, 51.25148987
3521.610237, 51.25148987
3521.657161, 51.25148987
3521.704086, 51.25148987
3521.751011, 51.25148987
3521.797936, 51.25148987
3521.844861, 51.25148987
3521.891786, 51.25148987
3521.938711, 51.25148987
3521.985636, 51.25148987
3522.032561, 51.25148987
3522.079486, 51.25148987
3522.126411, 51.25148987
3522.173336, 51.25148987
3522.220261, 51.25148987
3522.267186, 51.25148987
3522.314111, 51.25148987
3522.361036, 51.25148987
3522.407961, 51.25148987
3522.454886, 51.25148987
3522.501811, 51.25148987
3522.548736, 51.25148987
3522.595661, 51.25148987
3522.642586, 51.25148987
3522.689511, 51.25148987
3522.736436, 51.25148987
3522.783361, 51.84743743
3522.830286, 51.84743743
3522.877211, 51.84743743
3522.924135, 51.84743743
3522.97106, 51.84743743
3523.017985, 51.84743743
3523.06491, 51.84743743
3523.111835, 51.84743743
3523.15876, 51.84743743
3523.205685, 51.84743743
3523.25261, 51.84743743
3523.299535, 51.84743743
3523.34646, 50.65554231
3523.393385, 50.65554231
3523.44031, 52.44338498
3523.487235, 52.44338498
3523.53416, 52.44338498
3523.581085, 52.44338498
3523.62801, 52.44338498
3523.674935, 52.44338498
3523.72186, 52.44338498
3523.768785, 52.44338498
3523.81571, 52.44338498
3523.862635, 50.65554231
3523.90956, 51.25148987
3523.956485, 51.25148987
3524.00341, 51.25148987
3524.050335, 51.25148987
3524.09726, 51.25148987
3524.144185, 53.03933254
3524.19111, 53.03933254
3524.238034, 53.03933254
3524.284959, 53.03933254
3524.331884, 53.03933254
3524.378809, 53.03933254
3524.425734, 53.03933254
3524.472659, 53.03933254
3524.519584, 51.25148987
3524.566509, 51.25148987
3524.613434, 51.25148987
3524.660359, 53.6352801
3524.707284, 53.6352801
3524.754209, 53.6352801
3524.801134, 53.6352801
3524.848059, 53.6352801
3524.894984, 53.6352801
3524.941909, 53.6352801
3524.988834, 53.6352801
3525.035759, 53.6352801
3525.082684, 51.25148987
3525.129609, 51.25148987
3525.176534, 51.25148987
3525.223459, 51.25148987
3525.270384, 51.25148987
3525.317309, 51.25148987
3525.364234, 51.25148987
3525.411159, 51.25148987
3525.458084, 51.25148987
3525.505008, 50.65554231
3525.551933, 50.65554231
3525.598858, 53.6352801
3525.645783, 53.6352801
3525.692708, 53.6352801
3525.739633, 53.6352801
3525.786558, 53.6352801
3525.833483, 53.6352801
3525.880408, 53.6352801
3525.927333, 54.23122765
3525.974258, 54.23122765
3526.021183, 54.23122765
3526.068108, 54.23122765
3526.115033, 54.23122765
3526.161958, 54.82717521
3526.208883, 54.82717521
3526.255808, 54.82717521
3526.302733, 54.82717521
3526.349658, 54.82717521
3526.396583, 55.42312277
3526.443508, 55.42312277
3526.490433, 55.42312277
3526.537358, 55.42312277
3526.584283, 55.42312277
3526.631208, 55.42312277
3526.678133, 54.23122765
3526.725058, 56.01907032
3526.771983, 56.01907032
3526.818907, 56.01907032
3526.865832, 56.01907032
3526.912757, 56.01907032
3526.959682, 56.61501788
3527.006607, 56.61501788
3527.053532, 56.61501788
3527.100457, 56.61501788
3527.147382, 56.61501788
3527.194307, 56.61501788
3527.241232, 57.21096544
3527.288157, 57.21096544
3527.335082, 57.21096544
3527.382007, 57.21096544
3527.428932, 57.21096544
3527.475857, 57.21096544
3527.522782, 57.21096544
3527.569707, 57.21096544
3527.616632, 55.42312277
3527.663557, 55.42312277
3527.710482, 55.42312277
3527.757407, 55.42312277
3527.804332, 55.42312277
3527.851257, 55.42312277
3527.898182, 55.42312277
3527.945107, 55.42312277
3527.992032, 55.42312277
3528.038957, 55.42312277
3528.085881, 55.42312277
3528.132806, 50.65554231
3528.179731, 57.80691299
3528.226656, 57.80691299
3528.273581, 57.80691299
3528.320506, 57.80691299
3528.367431, 57.80691299
3528.414356, 57.80691299
3528.461281, 57.80691299
3528.508206, 57.80691299
3528.555131, 57.80691299
3528.602056, 57.80691299
3528.648981, 57.80691299
3528.695906, 57.80691299
3528.742831, 57.80691299
3528.789756, 57.80691299
3528.836681, 57.80691299
3528.883606, 57.80691299
3528.930531, 57.80691299
3528.977456, 57.80691299
3529.024381, 57.80691299
3529.071306, 57.80691299
3529.118231, 57.80691299
3529.165156, 57.80691299
3529.212081, 58.40286055
3529.259006, 58.40286055
3529.305931, 58.40286055
3529.352855, 58.40286055
3529.39978, 58.40286055
3529.446705, 58.40286055
3529.49363, 58.40286055
3529.540555, 58.40286055
3529.58748, 58.40286055
3529.634405, 58.40286055
3529.68133, 58.40286055
3529.728255, 58.9988081
3529.77518, 58.9988081
3529.822105, 58.9988081
3529.86903, 58.9988081
3529.915955, 58.9988081
3529.96288, 58.9988081
3530.009805, 58.9988081
3530.05673, 58.9988081
3530.103655, 58.9988081
3530.15058, 50.05959476
3530.197505, 50.05959476
3530.24443, 58.9988081
3530.291355, 58.9988081
3530.33828, 59.59475566
3530.385205, 59.59475566
3530.43213, 59.59475566
3530.479055, 59.59475566
3530.52598, 59.59475566
3530.572905, 59.59475566
3530.61983, 59.59475566
3530.666754, 57.80691299
3530.713679, 57.80691299
3530.760604, 60.19070322
3530.807529, 60.19070322
3530.854454, 60.19070322
3530.901379, 60.19070322
3530.948304, 60.19070322
3530.995229, 60.19070322
3531.042154, 60.19070322
3531.089079, 60.78665077
3531.136004, 60.78665077
3531.182929, 60.78665077
3531.229854, 60.78665077
3531.276779, 61.38259833
3531.323704, 61.38259833
3531.370629, 61.38259833
3531.417554, 61.38259833
3531.464479, 61.97854589
3531.511404, 61.97854589
3531.558329, 61.97854589
3531.605254, 61.97854589
3531.652179, 61.97854589
3531.699104, 62.57449344
3531.746029, 62.57449344
3531.792954, 62.57449344
3531.839879, 62.57449344
3531.886804, 62.57449344
3531.933728, 62.57449344
3531.980653, 63.170441
3532.027578, 63.170441
3532.074503, 63.170441
3532.121428, 63.170441
3532.168353, 63.170441
3532.215278, 63.170441
3532.262203, 63.76638856
3532.309128, 63.76638856
3532.356053, 63.76638856
3532.402978, 63.76638856
3532.449903, 63.76638856
3532.496828, 64.36233611
3532.543753, 64.36233611
3532.590678, 64.36233611
3532.637603, 64.36233611
3532.684528, 64.95828367
3532.731453, 64.95828367
3532.778378, 64.95828367
3532.825303, 64.95828367
3532.872228, 65.55423123
3532.919153, 65.55423123
3532.966078, 65.55423123
3533.013003, 66.15017878
3533.059928, 66.15017878
3533.106853, 66.15017878
3533.153778, 66.15017878
3533.200702, 66.74612634
3533.247627, 66.74612634
3533.294552, 66.74612634
3533.341477, 67.3420739
3533.388402, 67.3420739
3533.435327, 67.3420739
3533.482252, 67.93802145
3533.529177, 67.93802145
3533.576102, 67.93802145
3533.623027, 68.53396901
3533.669952, 68.53396901
3533.716877, 68.53396901
3533.763802, 68.53396901
3533.810727, 69.12991657
3533.857652, 69.12991657
3533.904577, 69.12991657
3533.951502, 69.12991657
3533.998427, 69.72586412
3534.045352, 69.72586412
3534.092277, 69.72586412
3534.139202, 69.72586412
3534.186127, 70.32181168
3534.233052, 70.32181168
3534.279977, 70.32181168
3534.326902, 70.32181168
3534.373827, 70.91775924
3534.420752, 70.91775924
3534.467677, 70.91775924
3534.514601, 71.51370679
3534.561526, 71.51370679
3534.608451, 71.51370679
3534.655376, 72.10965435
3534.702301, 72.10965435
3534.749226, 72.10965435
3534.796151, 72.10965435
3534.843076, 72.10965435
3534.890001, 72.70560191
3534.936926, 72.70560191
3534.983851, 72.70560191
3535.030776, 72.70560191
3535.077701, 72.70560191
3535.124626, 73.30154946
3535.171551, 73.30154946
3535.218476, 73.30154946
3535.265401, 73.30154946
3535.312326, 73.30154946
3535.359251, 73.30154946
3535.406176, 71.51370679
3535.453101, 71.51370679
3535.500026, 72.10965435
3535.546951, 72.10965435
3535.593876, 73.89749702
3535.640801, 73.89749702
3535.687726, 73.89749702
3535.734651, 73.89749702
3535.781575, 73.89749702
3535.8285, 74.49344458
3535.875425, 74.49344458
3535.92235, 74.49344458
3535.969275, 75.08939213
3536.0162, 75.08939213
3536.063125, 75.08939213
3536.11005, 75.68533969
3536.156975, 75.68533969
3536.2039, 76.28128725
3536.250825, 76.28128725
3536.29775, 76.28128725
3536.344675, 76.8772348
3536.3916, 76.8772348
3536.438525, 77.47318236
3536.48545, 77.47318236
3536.532375, 77.47318236
3536.5793, 78.06912992
3536.626225, 78.06912992
3536.67315, 78.66507747
3536.720075, 78.66507747
3536.767, 78.66507747
3536.813925, 79.26102503
3536.86085, 79.26102503
3536.907775, 79.85697259
3536.9547, 79.85697259
3537.001625, 80.45292014
3537.048549, 80.45292014
3537.095474, 81.0488677
3537.142399, 81.0488677
3537.189324, 81.64481526
3537.236249, 81.64481526
3537.283174, 81.64481526
3537.330099, 82.83671037
3537.377024, 82.83671037
3537.423949, 83.43265793
3537.470874, 83.43265793
3537.517799, 83.43265793
3537.564724, 84.62455304
3537.611649, 85.2205006
3537.658574, 85.2205006
3537.705499, 85.81644815
3537.752424, 86.41239571
3537.799349, 86.41239571
3537.846274, 86.41239571
3537.893199, 87.60429082
3537.940124, 88.20023838
3537.987049, 88.79618594
3538.033974, 89.39213349
3538.080899, 89.98808105
3538.127824, 90.58402861
3538.174749, 91.17997616
3538.221674, 91.77592372
3538.268599, 92.37187128
3538.315524, 92.37187128
3538.362448, 92.37187128
3538.409373, 93.56376639
3538.456298, 94.15971395
3538.503223, 94.15971395
3538.550148, 94.15971395
3538.597073, 95.35160906
3538.643998, 95.35160906
3538.690923, 95.35160906
3538.737848, 95.35160906
3538.784773, 95.35160906
3538.831698, 97.13945173
3538.878623, 97.13945173
3538.925548, 97.73539928
3538.972473, 97.73539928
3539.019398, 98.9272944
3539.066323, 99.52324195
3539.113248, 100.1191895
3539.160173, 101.3110846
3539.207098, 101.9070322
3539.254023, 102.5029797
3539.300948, 103.0989273
3539.347873, 103.0989273
3539.394798, 103.6948749
3539.441723, 104.2908224
3539.488648, 104.88677
3539.535573, 105.4827175
3539.582498, 106.0786651
3539.629422, 106.0786651
3539.676347, 106.0786651
3539.723272, 106.0786651
3539.770197, 106.6746126
3539.817122, 108.4624553
3539.864047, 109.6543504
3539.910972, 109.6543504
3539.957897, 110.250298
3540.004822, 110.8462455
3540.051747, 111.4421931
3540.098672, 112.0381406
3540.145597, 112.6340882
3540.192522, 113.2300358
3540.239447, 113.8259833
3540.286372, 114.4219309
3540.333297, 115.0178784
3540.380222, 115.613826
3540.427147, 116.2097735
3540.474072, 116.8057211
3540.520997, 117.4016687
3540.567922, 117.9976162
3540.614847, 118.5935638
3540.661772, 119.1895113
3540.708697, 119.7854589
3540.755622, 120.977354
3540.802547, 121.5733015
3540.849472, 122.1692491
3540.896396, 123.3611442
3540.943321, 123.9570918
3540.990246, 124.5530393
3541.037171, 125.7449344
3541.084096, 126.340882
3541.131021, 126.9368296
3541.177946, 128.1287247
3541.224871, 128.7246722
3541.271796, 129.3206198
3541.318721, 129.9165673
3541.365646, 129.9165673
3541.412571, 131.70441
3541.459496, 132.8963051
3541.506421, 132.8963051
3541.553346, 135.2800954
3541.600271, 136.4719905
3541.647196, 137.6638856
3541.694121, 137.6638856
3541.741046, 137.6638856
3541.787971, 137.6638856
3541.834896, 138.2598331
3541.881821, 143.0274136
3541.928746, 144.2193087
3541.975671, 144.2193087
3542.022596, 144.2193087
3542.069521, 147.1990465
3542.116446, 148.3909416
3542.163371, 148.9868892
3542.210295, 150.1787843
3542.25722, 150.1787843
3542.304145, 153.1585221
3542.35107, 154.3504172
3542.397995, 154.3504172
3542.44492, 154.3504172
3542.491845, 154.3504172
3542.53877, 154.9463647
3542.585695, 156.1382598
3542.63262, 161.5017878
3542.679545, 162.693683
3542.72647, 163.8855781
3542.773395, 163.8855781
3542.82032, 166.8653159
3542.867245, 168.057211
3542.91417, 169.2491061
3542.961095, 170.4410012
3543.00802, 171.6328963
3543.054945, 172.8247914
3543.10187, 174.0166865
3543.148795, 174.0166865
3543.19572, 176.9964243
3543.242645, 176.9964243
3543.28957, 179.9761621
3543.336495, 179.9761621
3543.38342, 179.9761621
3543.430345, 184.7437426
3543.477269, 184.7437426
3543.524194, 187.7234803
3543.571119, 188.9153754
3543.618044, 190.1072706
3543.664969, 191.8951132
3543.711894, 191.8951132
3543.758819, 194.874851
3543.805744, 196.6626937
3543.852669, 198.4505364
3543.899594, 198.4505364
3543.946519, 201.4302741
3543.993444, 201.4302741
3544.040369, 204.4100119
3544.087294, 204.4100119
3544.134219, 207.3897497
3544.181144, 208.5816448
3544.228069, 210.3694875
3544.274994, 210.3694875
3544.321919, 210.3694875
3544.368844, 210.3694875
3544.415769, 217.5208582
3544.462694, 219.3087008
3544.509619, 219.3087008
3544.556544, 219.3087008
3544.603469, 225.2681764
3544.650394, 227.0560191
3544.697319, 229.4398093
3544.744243, 231.227652
3544.791168, 231.227652
3544.838093, 235.3992849
3544.885018, 237.7830751
3544.931943, 240.7628129
3544.978868, 244.3384982
3545.025793, 247.9141836
3545.072718, 250.8939213
3545.119643, 253.2777116
3545.166568, 255.6615018
3545.213493, 258.045292
3545.260418, 259.8331347
3545.307343, 262.2169249
3545.354268, 264.0047676
3545.401193, 266.9845054
3545.448118, 269.3682956
3545.495043, 272.3480334
3545.541968, 275.3277712
3545.588893, 278.3075089
3545.635818, 280.6912992
3545.682743, 283.6710369
3545.729668, 286.0548272
3545.776593, 287.8426698
3545.823518, 289.6305125
3545.870443, 292.0143027
3545.917368, 294.9940405
3545.964293, 298.5697259
3546.011218, 302.7413588
3546.058142, 305.7210965
3546.105067, 309.2967819
3546.151992, 313.4684148
3546.198917, 315.852205
3546.245842, 318.8319428
3546.292767, 321.215733
3546.339692, 323.0035757
3546.386617, 323.0035757
3546.433542, 328.3671037
3546.480467, 333.7306317
3546.527392, 337.306317
3546.574317, 339.6901073
3546.621242, 341.4779499
3546.668167, 343.8617402
3546.715092, 348.6293206
3546.762017, 355.1847437
3546.808942, 358.1644815
3546.855867, 361.7401669
3546.902792, 364.7199046
3546.949717, 369.4874851
3546.996642, 375.4469607
3547.043567, 378.4266985
3547.090492, 380.8104887
3547.137417, 383.1942789
3547.184342, 385.5780691
3547.231267, 388.5578069
3547.278192, 392.7294398
3547.325116, 397.4970203
3547.372041, 402.2646007
3547.418966, 407.0321812
3547.465891, 410.6078665
3547.512816, 414.1835518
3547.559741, 416.5673421
3547.606666, 419.5470799
3547.653591, 421.9308701
3547.700516, 424.9106079
3547.747441, 427.8903456
3547.794366, 432.0619785
3547.841291, 436.2336114
3547.888216, 439.8092968
3547.935141, 442.7890346
3547.982066, 446.3647199
3548.028991, 449.3444577
3548.075916, 452.920143
3548.122841, 456.4958284
3548.169766, 459.4755662
3548.216691, 463.0512515
3548.263616, 466.0309893
3548.310541, 469.6066746
3548.357466, 473.18236
3548.404391, 476.1620977
3548.451316, 480.3337306
3548.498241, 485.6972586
3548.545166, 489.8688915
3548.59209, 493.4445769
3548.639015, 496.4243147
3548.68594, 498.8081049
3548.732865, 501.1918951
3548.77979, 503.5756853
3548.826715, 506.5554231
3548.87364, 509.5351609
3548.920565, 511.9189511
3548.96749, 514.3027414
3549.014415, 516.6865316
3549.06134, 519.0703218
3549.108265, 521.454112
3549.15519, 524.4338498
3549.202115, 528.0095352
3549.24904, 530.9892729
3549.295965, 533.3730632
3549.34289, 535.7568534
3549.389815, 538.1406436
3549.43674, 540.5244338
3549.483665, 542.9082241
3549.53059, 545.2920143
3549.577515, 547.6758045
3549.62444, 551.8474374
3549.671365, 551.8474374
3549.71829, 551.8474374
3549.765215, 556.6150179
3549.81214, 559.5947557
3549.859065, 561.3825983
3549.905989, 563.170441
3549.952914, 565.5542312
3549.999839, 566.7461263
3550.046764, 572.7056019
3550.093689, 574.4934446
3550.140614, 576.8772348
3550.187539, 576.8772348
3550.234464, 583.4326579
3550.281389, 584.0286055
3550.328314, 584.624553
3550.375239, 584.624553
3550.422164, 584.624553
3550.469089, 584.624553
3550.516014, 584.624553
3550.562939, 584.624553
3550.609864, 584.624553
3550.656789, 584.624553
3550.703714, 584.624553
3550.750639, 584.624553
3550.797564, 584.0286055
3550.844489, 584.0286055
3550.891414, 584.624553
3550.938339, 584.624553
3550.985264, 584.624553
3551.032189, 584.624553
3551.079114, 584.624553
3551.126039, 584.624553
3551.172963, 582.2407628
3551.219888, 581.0488677
3551.266813, 580.4529201
3551.313738, 580.4529201
3551.360663, 580.4529201
3551.407588, 578.6650775
3551.454513, 577.4731824
3551.501438, 576.8772348
3551.548363, 575.6853397
3551.595288, 574.4934446
3551.642213, 573.897497
3551.689138, 572.7056019
3551.736063, 571.5137068
3551.782988, 569.7258641
3551.829913, 569.1299166
3551.876838, 567.9380215
3551.923763, 567.3420739
3551.970688, 567.3420739
3552.017613, 565.5542312
3552.064538, 562.5744934
3552.111463, 562.5744934
3552.158388, 561.3825983
3552.205313, 560.1907032
3552.252238, 558.4028605
3552.299163, 558.4028605
3552.346088, 557.2109654
3552.393013, 556.0190703
3552.439937, 554.8271752
3552.486862, 549.4636472
3552.533787, 549.4636472
3552.580712, 547.079857
3552.627637, 542.3122765
3552.674562, 542.3122765
3552.721487, 539.9284863
3552.768412, 537.5446961
3552.815337, 535.7568534
3552.862262, 532.7771156
3552.909187, 532.7771156
3552.956112, 527.4135876
3553.003037, 527.4135876
3553.049962, 527.4135876
3553.096887, 524.4338498
3553.143812, 522.0500596
3553.190737, 513.7067938
3553.237662, 513.7067938
3553.284587, 513.7067938
3553.331512, 513.7067938
3553.378437, 511.9189511
3553.425362, 510.1311085
3553.472287, 505.9594756
3553.519212, 505.9594756
3553.566137, 501.7878427
3553.613062, 501.7878427
3553.659987, 500.5959476
3553.706912, 495.8283671
3553.753836, 493.4445769
3553.800761, 491.6567342
3553.847686, 489.272944
3553.894611, 486.8891538
3553.941536, 484.5053635
3553.988461, 483.909416
3554.035386, 480.3337306
3554.082311, 478.545888
3554.129236, 476.7580453
3554.176161, 471.9904648
3554.223086, 471.9904648
3554.270011, 471.9904648
3554.316936, 467.2228844
3554.363861, 467.2228844
3554.410786, 467.2228844
3554.457711, 460.0715137
3554.504636, 460.0715137
3554.551561, 460.0715137
3554.598486, 460.0715137
3554.645411, 457.6877235
3554.692336, 455.3039333
3554.739261, 452.920143
3554.786186, 448.7485101
3554.833111, 448.7485101
3554.880036, 446.9606675
3554.926961, 443.9809297
3554.973886, 443.9809297
3555.02081, 442.7890346
3555.067735, 439.8092968
3555.11466, 439.8092968
3555.161585, 438.0214541
3555.20851, 436.2336114
3555.255435, 435.0417163
3555.30236, 434.4457688
3555.349285, 433.8498212
3555.39621, 433.8498212
3555.443135, 433.2538737
3555.49006, 433.2538737
3555.536985, 433.2538737
3555.58391, 433.8498212
3555.630835, 433.8498212
3555.67776, 433.8498212
3555.724685, 434.4457688
3555.77161, 434.4457688
3555.818535, 435.0417163
3555.86546, 435.6376639
3555.912385, 435.6376639
3555.95931, 436.2336114
3556.006235, 436.829559
3556.05316, 437.4255066
3556.100085, 438.0214541
3556.14701, 440.4052443
3556.193935, 443.3849821
3556.24086, 445.7687723
3556.287784, 447.556615
3556.334709, 449.9404052
3556.381634, 451.7282479
3556.428559, 453.5160906
3556.475484, 455.8998808
3556.522409, 458.283671
3556.569334, 460.0715137
3556.616259, 462.4553039
3556.663184, 464.8390942
3556.710109, 467.2228844
3556.757034, 469.6066746
3556.803959, 471.9904648
3556.850884, 474.3742551
3556.897809, 476.1620977
3556.944734, 478.545888
3556.991659, 480.9296782
3557.038584, 483.3134684
3557.085509, 485.1013111
3557.132434, 487.4851013
3557.179359, 489.8688915
3557.226284, 491.6567342
3557.273209, 494.636472
3557.320134, 497.6162098
3557.367059, 500.5959476
3557.413984, 502.9797378
3557.460909, 505.9594756
3557.507834, 510.1311085
3557.554759, 514.8986889
3557.601683, 520.2622169
3557.648608, 524.4338498
3557.695533, 527.4135876
3557.742458, 530.3933254
3557.789383, 535.1609058
3557.836308, 539.9284863
3557.883233, 544.1001192
3557.930158, 547.6758045
3557.977083, 550.6555423
3558.024008, 554.2312277
3558.070933, 558.4028605
3558.117858, 564.3623361
3558.164783, 569.7258641
3558.211708, 578.0691299
3558.258633, 580.4529201
3558.305558, 584.0286055
3558.352483, 588.7961859
3558.399408, 594.7556615
3558.446333, 598.9272944
3558.493258, 605.4827175
3558.540183, 610.250298
3558.587108, 615.0178784
3558.634033, 618.5935638
3558.680958, 622.1692491
3558.727883, 625.7449344
3558.774808, 629.9165673
3558.821733, 634.6841478
3558.868657, 639.4517282
3558.915582, 643.6233611
3558.962507, 648.9868892
3559.009432, 653.1585221
3559.056357, 661.5017878
3559.103282, 669.2491061
3559.150207, 676.9964243
3559.197132, 682.9558999
3559.244057, 690.7032181
3559.290982, 696.6626937
3559.337907, 702.6221692
3559.384832, 709.1775924
3559.431757, 716.3289631
3559.478682, 722.2884386
3559.525607, 731.8235995
3559.572532, 738.9749702
3559.619457, 745.5303933
3559.666382, 750.2979738
3559.713307, 758.6412396
3559.760232, 768.772348
3559.807157, 772.9439809
3559.854082, 777.7115614
3559.901007, 786.0548272
3559.947932, 792.0143027
3559.994857, 796.7818832
3560.041782, 800.9535161
3560.088707, 805.7210965
3560.135631, 811.6805721
3560.182556, 828.9630513
3560.229481, 837.9022646
3560.276406, 845.0536353
3560.323331, 848.6293206
3560.370256, 852.205006
3560.417181, 856.3766389
3560.464106, 861.1442193
3560.511031, 865.3158522
3560.557956, 869.4874851
3560.604881, 873.0631704
3560.651806, 877.8307509
3560.698731, 882.5983313
3560.745656, 886.7699642
3560.792581, 893.9213349
3560.839506, 896.9010727
3560.886431, 899.2848629
3560.933356, 903.4564958
3560.980281, 907.6281287
3561.027206, 911.7997616
3561.074131, 915.375447
3561.121056, 918.9511323
3561.167981, 924.3146603
3561.214906, 928.4862932
3561.261831, 932.0619785
3561.308756, 935.6376639
3561.355681, 939.2133492
3561.402606, 942.7890346
3561.44953, 947.556615
3561.496455, 951.7282479
3561.54338, 955.3039333
3561.590305, 957.6877235
3561.63723, 961.2634088
3561.684155, 966.0309893
3561.73108, 971.3945173
3561.778005, 971.3945173
3561.82493, 975.5661502
3561.871855, 975.5661502
3561.91878, 975.5661502
3561.965705, 975.5661502
3562.01263, 975.5661502
3562.059555, 975.5661502
3562.10648, 975.5661502
3562.153405, 975.5661502
3562.20033, 974.9702026
3562.247255, 974.9702026
3562.29418, 974.3742551
3562.341105, 974.3742551
3562.38803, 973.7783075
3562.434955, 970.7985697
3562.48188, 970.7985697
3562.528805, 970.7985697
3562.57573, 970.7985697
3562.622655, 970.7985697
3562.66958, 966.6269368
3562.716504, 966.6269368
3562.763429, 962.4553039
3562.810354, 958.283671
3562.857279, 954.7079857
3562.904204, 951.1323004
3562.951129, 947.556615
3562.998054, 944.5768772
3563.044979, 941.0011919
3563.091904, 938.0214541
3563.138829, 935.6376639
3563.185754, 932.6579261
3563.232679, 929.6781883
3563.279604, 926.102503
3563.326529, 924.3146603
3563.373454, 921.9308701
3563.420379, 914.1835518
3563.467304, 914.1835518
3563.514229, 914.1835518
3563.561154, 911.2038141
3563.608079, 904.0524434
3563.655004, 904.0524434
3563.701929, 904.0524434
3563.748854, 896.9010727
3563.795779, 896.9010727
3563.842704, 893.9213349
3563.889629, 891.5375447
3563.936554, 889.1537545
3563.983478, 886.1740167
3564.030403, 882.0023838
3564.077328, 867.6996424
3564.124253, 862.932062
3564.171178, 858.7604291
3564.218103, 854.5887962
3564.265028, 836.1144219
3564.311953, 836.1144219
3564.358878, 833.7306317
3564.405803, 828.3671037
3564.452728, 817.0441001
3564.499653, 808.7008343
3564.546578, 797.9737783
3564.593503, 789.6305125
3564.640428, 786.0548272
3564.687353, 782.4791418
3564.734278, 778.3075089
3564.781203, 771.1561383
3564.828128, 763.40882
3564.875053, 758.6412396
3564.921978, 749.1060787
3564.968903, 741.954708
3565.015828, 734.8033373
3565.062753, 724.6722288
3565.109678, 716.9249106
3565.156603, 712.1573302
3565.203528, 706.7938021
3565.250453, 701.4302741
3565.297377, 694.2789035
3565.344302, 686.5315852
3565.391227, 678.784267
3565.438152, 673.420739
3565.485077, 665.0774732
3565.532002, 659.1179976
3565.578927, 651.9666269
3565.625852, 639.4517282
3565.672777, 635.2800954
3565.719702, 631.70441
3565.766627, 621.5733015
3565.813552, 613.2300358
3565.860477, 607.8665077
3565.907402, 603.0989273
3565.954327, 597.7353993
3566.001252, 587.6042908
3566.048177, 581.6448153
3566.095102, 576.2812872
3566.142027, 570.9177592
3566.188952, 558.9988081
3566.235877, 556.0190703
3566.282802, 554.2312277
3566.329727, 545.2920143
3566.376652, 539.9284863
3566.423577, 533.3730632
3566.470502, 526.81764
3566.517427, 511.3230036
3566.564351, 511.3230036
3566.611276, 502.3837902
3566.658201, 494.636472
3566.705126, 480.3337306
3566.752051, 474.3742551
3566.798976, 470.2026222
3566.845901, 466.0309893
3566.892826, 461.2634088
3566.939751, 456.4958284
3566.986676, 453.5160906
3567.033601, 451.7282479
3567.080526, 446.9606675
3567.127451, 441.0011919
3567.174376, 430.2741359
3567.221301, 425.5065554
3567.268226, 422.5268176
3567.315151, 419.5470799
3567.362076, 415.9713945
3567.409001, 411.7997616
3567.455926, 408.2240763
3567.502851, 404.6483909
3567.549776, 399.8808105
3567.596701, 396.9010727
3567.643626, 389.749702
3567.690551, 389.749702
3567.737476, 384.9821216
3567.784401, 378.4266985
3567.831325, 374.2550656
3567.87825, 370.6793802
3567.925175, 366.5077473
3567.9721, 362.932062
3568.019025, 359.9523242
3568.06595, 356.9725864
3568.112875, 353.3969011
3568.1598, 348.6293206
3568.206725, 337.306317
3568.25365, 333.1346841
3568.300575, 330.7508939
3568.3475, 328.3671037
3568.394425, 325.9833135
3568.44135, 323.5995232
3568.488275, 318.2359952
3568.5352, 318.2359952
3568.582125, 315.852205
3568.62905, 313.4684148
3568.675975, 308.1048868
3568.7229, 308.1048868
3568.769825, 305.7210965
3568.81675, 303.3373063
3568.863675, 296.1859356
3568.9106, 293.8021454
3568.957525, 291.4183552
3569.00445, 291.4183552
3569.051375, 291.4183552
3569.0983, 291.4183552
3569.145224, 287.8426698
3569.192149, 283.6710369
3569.239074, 279.4994041
3569.285999, 275.3277712
3569.332924, 265.7926103
3569.379849, 262.8128725
3569.426774, 261.0250298
3569.473699, 261.0250298
3569.520624, 261.0250298
3569.567549, 256.2574493
3569.614474, 254.4696067
3569.661399, 249.1060787
3569.708324, 249.1060787
3569.755249, 249.1060787
3569.802174, 247.318236
3569.849099, 245.5303933
3569.896024, 243.7425507
3569.942949, 241.954708
3569.989874, 238.9749702
3570.036799, 237.1871275
3570.083724, 234.8033373
3570.130649, 232.4195471
3570.177574, 230.6317044
3570.224499, 228.8438617
3570.271424, 227.0560191
3570.318349, 225.2681764
3570.365274, 223.4803337
3570.412198, 221.6924911
3570.459123, 219.9046484
3570.506048, 218.7127533
3570.552973, 215.1370679
3570.599898, 215.1370679
3570.646823, 213.3492253
3570.693748, 210.3694875
3570.740673, 210.3694875
3570.787598, 205.601907
3570.834523, 203.8140644
3570.881448, 202.0262217
3570.928373, 200.238379
3570.975298, 198.4505364
3571.022223, 196.6626937
3571.069148, 195.4707986
3571.116073, 193.6829559
3571.162998, 191.8951132
3571.209923, 191.8951132
3571.256848, 191.8951132
3571.303773, 187.7234803
3571.350698, 187.7234803
3571.397623, 185.9356377
3571.444548, 184.7437426
3571.491473, 183.5518474
3571.538398, 182.3599523
3571.585323, 181.1680572
3571.632248, 180.5721097
3571.679172, 179.3802145
3571.726097, 178.1883194
3571.773022, 176.4004768
3571.819947, 176.4004768
3571.866872, 175.2085816
3571.913797, 174.0166865
3571.960722, 172.8247914
3572.007647, 169.8450536
3572.054572, 169.8450536
3572.101497, 169.8450536
3572.148422, 168.6531585
3572.195347, 167.4612634
3572.242272, 166.2693683
3572.289197, 165.0774732
3572.336122, 163.8855781
3572.383047, 163.2896305
3572.429972, 162.0977354
3572.476897, 160.9058403
3572.523822, 159.7139452
3572.570747, 157.9261025
3572.617672, 157.9261025
3572.664597, 156.7342074
3572.711522, 155.5423123
3572.758447, 154.9463647
3572.805372, 153.7544696
3572.852297, 152.5625745
3572.899222, 151.9666269
3572.946147, 150.7747318
3572.993071, 150.1787843
3573.039996, 149.5828367
3573.086921, 148.9868892
3573.133846, 148.3909416
3573.180771, 146.6030989
3573.227696, 146.6030989
3573.274621, 146.0071514
3573.321546, 144.2193087
3573.368471, 144.2193087
3573.415396, 138.2598331
3573.462321, 138.2598331
3573.509246, 138.2598331
3573.556171, 138.2598331
3573.603096, 138.2598331
3573.650021, 137.067938
3573.696946, 137.067938
3573.743871, 137.067938
3573.790796, 136.4719905
3573.837721, 135.8760429
3573.884646, 135.2800954
3573.931571, 134.6841478
3573.978496, 131.70441
3574.025421, 131.70441
3574.072346, 131.70441
3574.119271, 131.1084625
3574.166196, 130.5125149
3574.213121, 129.9165673
3574.260045, 129.3206198
3574.30697, 128.7246722
3574.353895, 128.1287247
3574.40082, 127.5327771
3574.447745, 126.9368296
3574.49467, 126.340882
3574.541595, 125.7449344
3574.58852, 125.1489869
3574.635445, 124.5530393
3574.68237, 123.9570918
3574.729295, 123.3611442
3574.77622, 122.7651967
3574.823145, 122.1692491
3574.87007, 121.5733015
3574.916995, 119.7854589
3574.96392, 119.7854589
3575.010845, 119.1895113
3575.05777, 117.4016687
3575.104695, 117.4016687
3575.15162, 116.8057211
3575.198545, 116.8057211
3575.24547, 116.2097735
3575.292395, 115.613826
3575.33932, 115.0178784
3575.386245, 115.0178784
3575.43317, 114.4219309
3575.480095, 113.8259833
3575.527019, 113.2300358
3575.573944, 112.6340882
3575.620869, 111.4421931
3575.667794, 111.4421931
3575.714719, 111.4421931
3575.761644, 110.8462455
3575.808569, 110.250298
3575.855494, 110.250298
3575.902419, 109.6543504
3575.949344, 109.0584029
3575.996269, 109.0584029
3576.043194, 107.8665077
3576.090119, 107.8665077
3576.137044, 107.8665077
3576.183969, 107.2705602
3576.230894, 107.2705602
3576.277819, 106.6746126
3576.324744, 106.6746126
3576.371669, 105.4827175
3576.418594, 105.4827175
3576.465519, 105.4827175
3576.512444, 104.88677
3576.559369, 104.88677
3576.606294, 104.2908224
3576.653219, 104.2908224
3576.700144, 103.6948749
3576.747069, 103.0989273
3576.793994, 103.0989273
3576.840918, 102.5029797
3576.887843, 102.5029797
3576.934768, 101.9070322
3576.981693, 101.9070322
3577.028618, 101.3110846
3577.075543, 100.7151371
3577.122468, 100.7151371
3577.169393, 100.1191895
3577.216318, 100.1191895
3577.263243, 99.52324195
3577.310168, 98.9272944
3577.357093, 97.13945173
3577.404018, 97.13945173
3577.450943, 97.13945173
3577.497868, 96.54350417
3577.544793, 94.7556615
3577.591718, 94.7556615
3577.638643, 94.7556615
3577.685568, 94.7556615
3577.732493, 94.15971395
3577.779418, 93.56376639
3577.826343, 92.96781883
3577.873268, 92.37187128
3577.920193, 92.37187128
3577.967118, 90.58402861
3578.014043, 90.58402861
3578.060968, 89.98808105
3578.107892, 89.98808105
3578.154817, 89.39213349
3578.201742, 89.39213349
3578.248667, 88.79618594
3578.295592, 88.20023838
3578.342517, 87.60429082
3578.389442, 87.60429082
3578.436367, 87.00834327
3578.483292, 87.00834327
3578.530217, 86.41239571
3578.577142, 85.81644815
3578.624067, 85.81644815
3578.670992, 85.2205006
3578.717917, 85.2205006
3578.764842, 84.62455304
3578.811767, 84.02860548
3578.858692, 84.02860548
3578.905617, 82.83671037
3578.952542, 82.83671037
3578.999467, 82.83671037
3579.046392, 82.83671037
3579.093317, 82.83671037
3579.140242, 80.45292014
3579.187167, 80.45292014
3579.234092, 79.85697259
3579.281017, 79.85697259
3579.327942, 79.26102503
3579.374866, 79.85697259
3579.421791, 79.85697259
3579.468716, 79.85697259
3579.515641, 79.85697259
3579.562566, 79.85697259
3579.609491, 79.26102503
3579.656416, 79.26102503
3579.703341, 78.66507747
3579.750266, 78.66507747
3579.797191, 78.06912992
3579.844116, 78.06912992
3579.891041, 76.8772348
3579.937966, 76.8772348
3579.984891, 76.8772348
3580.031816, 76.8772348
3580.078741, 76.8772348
3580.125666, 76.8772348
3580.172591, 76.8772348
3580.219516, 76.8772348
3580.266441, 76.28128725
3580.313366, 76.28128725
3580.360291, 76.28128725
3580.407216, 76.28128725
3580.454141, 76.28128725
3580.501066, 76.28128725
3580.547991, 75.68533969
3580.594916, 75.68533969
3580.641841, 75.68533969
3580.688765, 75.68533969
3580.73569, 75.68533969
3580.782615, 75.08939213
3580.82954, 75.08939213
3580.876465, 75.08939213
3580.92339, 75.08939213
3580.970315, 74.49344458
3581.01724, 74.49344458
3581.064165, 74.49344458
3581.11109, 74.49344458
3581.158015, 72.10965435
3581.20494, 72.10965435
3581.251865, 72.10965435
3581.29879, 72.10965435
3581.345715, 72.10965435
3581.39264, 71.51370679
3581.439565, 71.51370679
3581.48649, 71.51370679
3581.533415, 71.51370679
3581.58034, 70.91775924
3581.627265, 70.91775924
3581.67419, 70.91775924
3581.721115, 70.32181168
3581.76804, 70.32181168
3581.814965, 70.32181168
3581.86189, 70.32181168
3581.908815, 70.32181168
3581.955739, 69.72586412
3582.002664, 69.72586412
3582.049589, 69.72586412
3582.096514, 69.72586412
3582.143439, 69.12991657
3582.190364, 69.12991657
3582.237289, 69.12991657
3582.284214, 69.12991657
3582.331139, 68.53396901
3582.378064, 68.53396901
3582.424989, 68.53396901
3582.471914, 67.93802145
3582.518839, 67.93802145
3582.565764, 67.93802145
3582.612689, 67.93802145
3582.659614, 67.93802145
3582.706539, 67.93802145
3582.753464, 67.93802145
3582.800389, 67.93802145
3582.847314, 67.93802145
3582.894239, 67.3420739
3582.941164, 67.3420739
3582.988089, 67.3420739
3583.035014, 66.74612634
3583.081939, 66.74612634
3583.128864, 66.74612634
3583.175789, 66.15017878
3583.222713, 66.15017878
3583.269638, 66.15017878
3583.316563, 65.55423123
3583.363488, 65.55423123
3583.410413, 65.55423123
3583.457338, 65.55423123
3583.504263, 64.95828367
3583.551188, 64.95828367
3583.598113, 64.95828367
3583.645038, 64.36233611
3583.691963, 64.36233611
3583.738888, 64.36233611
3583.785813, 64.36233611
3583.832738, 63.76638856
3583.879663, 63.76638856
3583.926588, 63.76638856
3583.973513, 63.76638856
3584.020438, 63.76638856
3584.067363, 63.170441
3584.114288, 63.170441
3584.161213, 63.170441
3584.208138, 63.170441
3584.255063, 62.57449344
3584.301988, 62.57449344
3584.348913, 62.57449344
3584.395838, 62.57449344
3584.442763, 61.97854589
3584.489688, 61.97854589
3584.536612, 61.97854589
3584.583537, 61.38259833
3584.630462, 61.38259833
3584.677387, 61.38259833
3584.724312, 60.78665077
3584.771237, 60.78665077
3584.818162, 60.78665077
3584.865087, 60.19070322
3584.912012, 60.19070322
3584.958937, 60.19070322
3585.005862, 59.59475566
3585.052787, 59.59475566
3585.099712, 59.59475566
3585.146637, 58.9988081
3585.193562, 58.9988081
3585.240487, 58.9988081
3585.287412, 58.40286055
3585.334337, 58.40286055
3585.381262, 58.40286055
3585.428187, 57.80691299
3585.475112, 57.80691299
3585.522037, 57.80691299
3585.568962, 55.42312277
3585.615887, 55.42312277
3585.662812, 55.42312277
3585.709737, 54.82717521
3585.756662, 54.82717521
3585.803586, 54.82717521
3585.850511, 54.82717521
3585.897436, 56.01907032
3585.944361, 56.01907032
3585.991286, 56.01907032
3586.038211, 56.01907032
3586.085136, 56.01907032
3586.132061, 55.42312277
3586.178986, 55.42312277
3586.225911, 55.42312277
3586.272836, 55.42312277
3586.319761, 55.42312277
3586.366686, 54.82717521
3586.413611, 54.82717521
3586.460536, 54.82717521
3586.507461, 54.82717521
3586.554386, 54.23122765
3586.601311, 54.23122765
3586.648236, 54.23122765
3586.695161, 54.23122765
3586.742086, 54.23122765
3586.789011, 53.6352801
3586.835936, 53.6352801
3586.882861, 53.6352801
3586.929786, 53.6352801
3586.976711, 53.6352801
3587.023636, 53.6352801
3587.07056, 51.25148987
3587.117485, 51.25148987
3587.16441, 51.25148987
3587.211335, 53.03933254
3587.25826, 53.03933254
3587.305185, 53.03933254
3587.35211, 53.03933254
3587.399035, 53.03933254
3587.44596, 53.03933254
3587.492885, 53.03933254
3587.53981, 50.65554231
3587.586735, 50.65554231
3587.63366, 52.44338498
3587.680585, 52.44338498
3587.72751, 52.44338498
3587.774435, 52.44338498
3587.82136, 52.44338498
3587.868285, 52.44338498
3587.91521, 52.44338498
3587.962135, 51.84743743
3588.00906, 51.84743743
3588.055985, 51.84743743
3588.10291, 51.84743743
3588.149835, 51.84743743
3588.19676, 51.84743743
3588.243685, 51.25148987
3588.29061, 51.25148987
3588.337535, 51.25148987
3588.384459, 51.25148987
3588.431384, 51.25148987
3588.478309, 51.25148987
3588.525234, 50.65554231
3588.572159, 50.65554231
3588.619084, 50.65554231
3588.666009, 50.65554231
3588.712934, 50.65554231
3588.759859, 50.05959476
3588.806784, 50.05959476
3588.853709, 50.05959476
3588.900634, 50.05959476
3588.947559, 50.05959476
3588.994484, 50.05959476
3589.041409, 49.4636472
3589.088334, 40.52443385
3589.135259, 49.4636472
3589.182184, 49.4636472
3589.229109, 49.4636472
3589.276034, 49.4636472
3589.322959, 49.4636472
3589.369884, 49.4636472
3589.416809, 49.4636472
3589.463734, 49.4636472
3589.510659, 49.4636472
3589.557584, 49.4636472
3589.604509, 49.4636472
3589.651433, 47.67580453
3589.698358, 47.67580453
3589.745283, 47.67580453
3589.792208, 47.67580453
3589.839133, 47.07985697
3589.886058, 47.07985697
3589.932983, 47.07985697
3589.979908, 48.86769964
3590.026833, 48.86769964
3590.073758, 48.86769964
3590.120683, 48.86769964
3590.167608, 48.86769964
3590.214533, 48.86769964
3590.261458, 48.86769964
3590.308383, 48.86769964
3590.355308, 48.86769964
3590.402233, 48.86769964
3590.449158, 48.86769964
3590.496083, 47.07985697
3590.543008, 46.48390942
3590.589933, 46.48390942
3590.636858, 46.48390942
3590.683783, 48.27175209
3590.730708, 48.27175209
3590.777633, 48.27175209
3590.824558, 48.27175209
3590.871483, 48.27175209
3590.918407, 48.27175209
3590.965332, 48.27175209
3591.012257, 48.27175209
3591.059182, 48.27175209
3591.106107, 45.88796186
3591.153032, 47.67580453
3591.199957, 47.67580453
3591.246882, 47.67580453
3591.293807, 47.67580453
3591.340732, 47.67580453
3591.387657, 47.67580453
3591.434582, 47.67580453
3591.481507, 47.07985697
3591.528432, 47.07985697
3591.575357, 47.07985697
3591.622282, 47.07985697
3591.669207, 47.07985697
3591.716132, 47.07985697
3591.763057, 46.48390942
3591.809982, 46.48390942
3591.856907, 46.48390942
3591.903832, 46.48390942
3591.950757, 46.48390942
3591.997682, 46.48390942
3592.044607, 45.88796186
3592.091532, 45.88796186
3592.138457, 45.88796186
3592.185382, 45.88796186
3592.232306, 45.88796186
3592.279231, 45.88796186
3592.326156, 45.88796186
3592.373081, 45.88796186
3592.420006, 44.10011919
3592.466931, 43.50417163
3592.513856, 45.2920143
3592.560781, 45.2920143
3592.607706, 45.2920143
3592.654631, 45.2920143
3592.701556, 45.2920143
3592.748481, 45.2920143
3592.795406, 45.2920143
3592.842331, 45.2920143
3592.889256, 45.2920143
3592.936181, 45.2920143
3592.983106, 45.2920143
3593.030031, 45.2920143
3593.076956, 45.2920143
3593.123881, 45.2920143
3593.170806, 45.2920143
3593.217731, 43.50417163
3593.264656, 43.50417163
3593.311581, 43.50417163
3593.358506, 43.50417163
3593.405431, 35.7568534
3593.452356, 35.7568534
3593.49928, 35.7568534
3593.546205, 35.7568534
3593.59313, 35.7568534
3593.640055, 35.7568534
3593.68698, 35.7568534
3593.733905, 35.7568534
3593.78083, 35.7568534
3593.827755, 35.7568534
3593.87468, 35.7568534
3593.921605, 35.7568534
3593.96853, 43.50417163
3594.015455, 43.50417163
3594.06238, 43.50417163
3594.109305, 43.50417163
3594.15623, 43.50417163
3594.203155, 43.50417163
3594.25008, 44.69606675
3594.297005, 44.69606675
3594.34393, 44.69606675
3594.390855, 44.69606675
3594.43778, 44.69606675
3594.484705, 44.69606675
3594.53163, 44.69606675
3594.578555, 44.69606675
3594.62548, 44.10011919
3594.672405, 44.10011919
3594.71933, 44.10011919
3594.766254, 44.10011919
3594.813179, 44.10011919
3594.860104, 44.10011919
3594.907029, 44.10011919
3594.953954, 43.50417163
3595.000879, 43.50417163
3595.047804, 43.50417163
3595.094729, 43.50417163
3595.141654, 43.50417163
3595.188579, 43.50417163
3595.235504, 43.50417163
3595.282429, 43.50417163
3595.329354, 43.50417163
3595.376279, 43.50417163
3595.423204, 43.50417163
3595.470129, 42.31227652
3595.517054, 42.31227652
3595.563979, 42.31227652
3595.610904, 42.31227652
3595.657829, 42.31227652
3595.704754, 43.50417163
3595.751679, 43.50417163
3595.798604, 43.50417163
3595.845529, 43.50417163
3595.892454, 43.50417163
3595.939379, 43.50417163
3595.986304, 43.50417163
3596.033229, 43.50417163
3596.080153, 43.50417163
3596.127078, 43.50417163
3596.174003, 41.71632896
3596.220928, 41.71632896
3596.267853, 41.71632896
3596.314778, 41.71632896
3596.361703, 41.71632896
3596.408628, 41.71632896
3596.455553, 41.71632896
3596.502478, 41.71632896
3596.549403, 41.71632896
3596.596328, 41.71632896
3596.643253, 41.12038141
3596.690178, 41.12038141
3596.737103, 41.12038141
3596.784028, 41.12038141
3596.830953, 41.71632896
3596.877878, 41.71632896
3596.924803, 41.71632896
3596.971728, 41.71632896
3597.018653, 41.71632896
3597.065578, 41.12038141
3597.112503, 41.12038141
3597.159428, 41.12038141
3597.206353, 41.12038141
3597.253278, 41.12038141
3597.300203, 41.12038141
3597.347127, 41.12038141
3597.394052, 41.12038141
3597.440977, 41.12038141
3597.487902, 41.12038141
3597.534827, 41.12038141
3597.581752, 41.12038141
3597.628677, 41.12038141
3597.675602, 41.12038141
3597.722527, 41.71632896
3597.769452, 41.71632896
3597.816377, 41.71632896
3597.863302, 41.71632896
3597.910227, 41.71632896
3597.957152, 40.52443385
3598.004077, 40.52443385
3598.051002, 40.52443385
3598.097927, 40.52443385
3598.144852, 40.52443385
3598.191777, 40.52443385
3598.238702, 40.52443385
3598.285627, 40.52443385
3598.332552, 40.52443385
3598.379477, 41.71632896
3598.426402, 41.71632896
3598.473327, 41.71632896
3598.520252, 41.71632896
3598.567177, 41.71632896
3598.614101, 41.12038141
3598.661026, 41.12038141
3598.707951, 40.52443385
3598.754876, 40.52443385
3598.801801, 40.52443385
3598.848726, 40.52443385
3598.895651, 40.52443385
3598.942576, 40.52443385
3598.989501, 38.73659118
3599.036426, 38.73659118
3599.083351, 38.73659118
3599.130276, 39.92848629
3599.177201, 39.92848629
3599.224126, 39.92848629
3599.271051, 39.92848629
3599.317976, 39.92848629
3599.364901, 39.92848629
3599.411826, 39.92848629
3599.458751, 39.92848629
3599.505676, 38.14064362
3599.552601, 38.14064362
3599.599526, 39.33253874
3599.646451, 39.33253874
3599.693376, 39.33253874
3599.740301, 39.33253874
3599.787226, 39.33253874
3599.834151, 39.33253874
3599.881076, 39.33253874
3599.928, 37.54469607
3599.974925, 37.54469607
3600.02185, 38.73659118
3600.068775, 38.73659118
3600.1157, 38.73659118
3600.162625, 38.73659118
3600.20955, 38.73659118
3600.256475, 38.73659118
3600.3034, 38.14064362
3600.350325, 38.14064362
3600.39725, 38.14064362
3600.444175, 38.14064362
3600.4911, 38.14064362
3600.538025, 38.14064362
3600.58495, 37.54469607
3600.631875, 37.54469607
3600.6788, 37.54469607
3600.725725, 37.54469607
3600.77265, 37.54469607
3600.819575, 37.54469607
3600.8665, 36.94874851
3600.913425, 36.94874851
3600.96035, 36.94874851
3601.007275, 36.94874851
3601.0542, 36.94874851
3601.101125, 36.94874851
3601.14805, 36.94874851
3601.194974, 36.35280095
3601.241899, 36.35280095
3601.288824, 36.35280095
3601.335749, 36.35280095
3601.382674, 36.35280095
3601.429599, 36.35280095
3601.476524, 27.4135876
3601.523449, 27.4135876
3601.570374, 27.4135876
3601.617299, 27.4135876
3601.664224, 27.4135876
3601.711149, 27.4135876
3601.758074, 27.4135876
3601.804999, 36.94874851
3601.851924, 36.94874851
3601.898849, 36.94874851
3601.945774, 36.94874851
3601.992699, 36.94874851
3602.039624, 36.94874851
3602.086549, 36.94874851
3602.133474, 35.16090584
3602.180399, 37.54469607
3602.227324, 37.54469607
3602.274249, 37.54469607
3602.321174, 37.54469607
3602.368099, 37.54469607
3602.415024, 37.54469607
3602.461949, 37.54469607
3602.508873, 37.54469607
3602.555798, 37.54469607
3602.602723, 35.7568534
3602.649648, 35.7568534
3602.696573, 36.35280095
3602.743498, 36.35280095
3602.790423, 38.14064362
3602.837348, 38.14064362
3602.884273, 38.14064362
3602.931198, 38.14064362
3602.978123, 38.14064362
3603.025048, 38.14064362
3603.071973, 38.14064362
3603.118898, 38.14064362
3603.165823, 38.14064362
3603.212748, 38.14064362
3603.259673, 38.14064362
3603.306598, 38.14064362
3603.353523, 38.14064362
3603.400448, 38.14064362
3603.447373, 38.14064362
3603.494298, 38.14064362
3603.541223, 38.14064362
3603.588148, 38.14064362
3603.635073, 38.14064362
3603.681998, 38.14064362
3603.728923, 38.14064362
3603.775847, 38.14064362
3603.822772, 38.14064362
3603.869697, 38.14064362
3603.916622, 38.14064362
3603.963547, 38.14064362
3604.010472, 38.14064362
3604.057397, 38.14064362
3604.104322, 38.14064362
3604.151247, 38.14064362
3604.198172, 38.14064362
3604.245097, 38.14064362
3604.292022, 38.14064362
3604.338947, 38.14064362
3604.385872, 38.14064362
3604.432797, 38.14064362
3604.479722, 38.14064362
3604.526647, 37.54469607
3604.573572, 37.54469607
3604.620497, 37.54469607
3604.667422, 37.54469607
3604.714347, 37.54469607
3604.761272, 37.54469607
3604.808197, 37.54469607
3604.855122, 37.54469607
3604.902047, 29.20143027
3604.948972, 29.20143027
3604.995897, 37.54469607
3605.042821, 37.54469607
3605.089746, 37.54469607
3605.136671, 37.54469607
3605.183596, 37.54469607
3605.230521, 37.54469607
3605.277446, 37.54469607
3605.324371, 37.54469607
3605.371296, 37.54469607
3605.418221, 37.54469607
3605.465146, 37.54469607
3605.512071, 37.54469607
3605.558996, 37.54469607
3605.605921, 37.54469607
3605.652846, 37.54469607
3605.699771, 37.54469607
3605.746696, 37.54469607
3605.793621, 34.56495828
3605.840546, 34.56495828
3605.887471, 34.56495828
3605.934396, 34.56495828
3605.981321, 36.94874851
3606.028246, 36.94874851
3606.075171, 36.94874851
3606.122096, 36.94874851
3606.169021, 36.94874851
3606.215946, 36.94874851
3606.262871, 36.94874851
3606.309796, 36.94874851
3606.35672, 36.94874851
3606.403645, 36.94874851
3606.45057, 33.96901073
3606.497495, 33.96901073
3606.54442, 33.96901073
3606.591345, 33.96901073
3606.63827, 36.35280095
3606.685195, 36.35280095
3606.73212, 36.35280095
3606.779045, 36.35280095
3606.82597, 36.35280095
3606.872895, 36.35280095
3606.91982, 36.35280095
3606.966745, 36.35280095
3607.01367, 36.35280095
3607.060595, 36.35280095
3607.10752, 36.35280095
3607.154445, 36.35280095
3607.20137, 36.35280095
3607.248295, 34.56495828
3607.29522, 34.56495828
3607.342145, 34.56495828
3607.38907, 34.56495828
3607.435995, 34.56495828
3607.48292, 34.56495828
3607.529845, 34.56495828
3607.57677, 34.56495828
3607.623694, 34.56495828
3607.670619, 34.56495828
3607.717544, 34.56495828
3607.764469, 34.56495828
3607.811394, 35.7568534
3607.858319, 35.7568534
3607.905244, 35.7568534
3607.952169, 35.7568534
3607.999094, 35.7568534
3608.046019, 35.7568534
3608.092944, 35.7568534
3608.139869, 35.7568534
3608.186794, 35.7568534
3608.233719, 35.7568534
3608.280644, 35.7568534
3608.327569, 35.7568534
3608.374494, 35.7568534
3608.421419, 35.7568534
3608.468344, 35.7568534
3608.515269, 35.7568534
3608.562194, 35.7568534
3608.609119, 35.7568534
3608.656044, 29.20143027
3608.702969, 28.60548272
3608.749894, 28.60548272
3608.796819, 28.60548272
3608.843744, 28.60548272
3608.890668, 28.60548272
3608.937593, 28.60548272
3608.984518, 28.60548272
3609.031443, 28.60548272
3609.078368, 28.60548272
3609.125293, 29.20143027
3609.172218, 29.20143027
3609.219143, 29.20143027
3609.266068, 29.20143027
3609.312993, 29.20143027
3609.359918, 35.16090584
3609.406843, 35.16090584
3609.453768, 35.16090584
3609.500693, 35.16090584
3609.547618, 35.16090584
3609.594543, 35.16090584
3609.641468, 35.16090584
3609.688393, 35.16090584
3609.735318, 35.16090584
3609.782243, 35.16090584
3609.829168, 35.16090584
3609.876093, 35.16090584
3609.923018, 35.16090584
3609.969943, 33.37306317
3610.016868, 33.37306317
3610.063793, 33.37306317
3610.110718, 34.56495828
3610.157643, 34.56495828
3610.204567, 34.56495828
3610.251492, 34.56495828
3610.298417, 34.56495828
3610.345342, 34.56495828
3610.392267, 34.56495828
3610.439192, 34.56495828
3610.486117, 32.18116806
3610.533042, 32.18116806
3610.579967, 33.96901073
3610.626892, 33.96901073
3610.673817, 33.96901073
3610.720742, 33.96901073
3610.767667, 33.96901073
3610.814592, 33.96901073
3610.861517, 33.37306317
3610.908442, 33.37306317
3610.955367, 33.37306317
3611.002292, 33.37306317
3611.049217, 33.37306317
3611.096142, 33.37306317
3611.143067, 33.37306317
3611.189992, 32.77711561
3611.236917, 32.77711561
3611.283842, 32.77711561
3611.330767, 32.77711561
3611.377692, 32.77711561
3611.424617, 32.77711561
3611.471541, 32.77711561
3611.518466, 32.77711561
3611.565391, 32.77711561
3611.612316, 32.77711561
3611.659241, 32.77711561
3611.706166, 32.77711561
3611.753091, 32.77711561
3611.800016, 23.83790226
3611.846941, 23.83790226
3611.893866, 23.83790226
3611.940791, 23.83790226
3611.987716, 23.83790226
3612.034641, 23.83790226
3612.081566, 23.83790226
3612.128491, 23.83790226
3612.175416, 23.83790226
3612.222341, 23.83790226
3612.269266, 23.83790226
3612.316191, 23.83790226
3612.363116, 23.83790226
3612.410041, 23.83790226
3612.456966, 23.83790226
3612.503891, 23.83790226
3612.550816, 23.83790226
3612.597741, 23.83790226
3612.644666, 23.83790226
3612.691591, 23.83790226
3612.738515, 23.83790226
3612.78544, 23.83790226
3612.832365, 23.83790226
3612.87929, 23.83790226
3612.926215, 23.83790226
3612.97314, 23.83790226
3613.020065, 23.83790226
3613.06699, 23.83790226
3613.113915, 23.83790226
3613.16084, 23.83790226
3613.207765, 23.83790226
3613.25469, 23.83790226
3613.301615, 23.83790226
3613.34854, 23.83790226
3613.395465, 23.83790226
3613.44239, 23.83790226
3613.489315, 23.83790226
3613.53624, 23.83790226
3613.583165, 23.83790226
3613.63009, 23.83790226
3613.677015, 23.83790226
3613.72394, 23.83790226
3613.770865, 23.83790226
3613.81779, 23.83790226
3613.864715, 23.83790226
3613.91164, 23.83790226
3613.958565, 23.83790226
3614.00549, 23.83790226
3614.052414, 23.83790226
3614.099339, 23.83790226
3614.146264, 23.83790226
3614.193189, 23.83790226
3614.240114, 23.83790226
3614.287039, 23.83790226
3614.333964, 23.83790226
3614.380889, 23.83790226
3614.427814, 23.83790226
3614.474739, 23.83790226
3614.521664, 23.83790226
3614.568589, 23.83790226
3614.615514, 23.83790226
3614.662439, 23.83790226
3614.709364, 23.83790226
3614.756289, 23.83790226
3614.803214, 23.83790226
3614.850139, 32.18116806
3614.897064, 32.18116806
3614.943989, 32.18116806
3614.990914, 32.18116806
3615.037839, 32.18116806
3615.084764, 23.83790226
3615.131689, 23.83790226
3615.178614, 23.83790226
3615.225539, 23.83790226
3615.272464, 23.83790226
3615.319388, 23.83790226
3615.366313, 23.83790226
3615.413238, 23.83790226
3615.460163, 23.83790226
3615.507088, 23.83790226
3615.554013, 23.83790226
3615.600938, 23.83790226
3615.647863, 23.83790226
3615.694788, 23.83790226
3615.741713, 23.83790226
3615.788638, 23.83790226
3615.835563, 23.83790226
3615.882488, 23.83790226
3615.929413, 23.83790226
3615.976338, 23.83790226
3616.023263, 23.83790226
3616.070188, 23.83790226
3616.117113, 23.83790226
3616.164038, 23.83790226
3616.210963, 23.83790226
3616.257888, 23.83790226
3616.304813, 23.83790226
3616.351738, 23.83790226
3616.398663, 23.83790226
3616.445588, 23.83790226
3616.492513, 23.83790226
3616.539438, 23.83790226
3616.586362, 23.83790226
3616.633287, 23.83790226
3616.680212, 23.83790226
3616.727137, 23.83790226
3616.774062, 23.83790226
3616.820987, 23.83790226
3616.867912, 23.83790226
3616.914837, 23.83790226
3616.961762, 23.83790226
3617.008687, 23.83790226
3617.055612, 23.83790226
3617.102537, 23.83790226
3617.149462, 23.83790226
3617.196387, 23.83790226
3617.243312, 23.83790226
3617.290237, 23.83790226
3617.337162, 23.83790226
3617.384087, 23.83790226
3617.431012, 23.83790226
3617.477937, 23.83790226
3617.524862, 23.83790226
3617.571787, 23.83790226
3617.618712, 30.98927294
3617.665637, 30.98927294
3617.712562, 30.98927294
3617.759487, 30.98927294
3617.806412, 30.98927294
3617.853337, 30.98927294
3617.900261, 30.98927294
3617.947186, 32.77711561
3617.994111, 32.77711561
3618.041036, 32.77711561
3618.087961, 32.77711561
3618.134886, 32.77711561
3618.181811, 32.77711561
3618.228736, 32.77711561
3618.275661, 32.77711561
3618.322586, 32.77711561
3618.369511, 32.77711561
3618.416436, 30.98927294
3618.463361, 30.98927294
3618.510286, 30.98927294
3618.557211, 30.98927294
3618.604136, 30.98927294
3618.651061, 30.98927294
3618.697986, 33.37306317
3618.744911, 33.37306317
3618.791836, 33.37306317
3618.838761, 33.37306317
3618.885686, 33.37306317
3618.932611, 33.37306317
3618.979536, 33.37306317
3619.026461, 33.37306317
3619.073386, 33.37306317
3619.120311, 33.37306317
3619.167235, 30.98927294
3619.21416, 30.98927294
3619.261085, 30.98927294
3619.30801, 30.98927294
3619.354935, 33.37306317
3619.40186, 33.37306317
3619.448785, 33.37306317
3619.49571, 33.37306317
3619.542635, 33.37306317
3619.58956, 33.37306317
3619.636485, 33.37306317
3619.68341, 33.37306317
3619.730335, 33.37306317
3619.77726, 33.37306317
3619.824185, 33.37306317
3619.87111, 32.77711561
3619.918035, 32.77711561
3619.96496, 32.77711561