##NAMES=Hibbingite
##MID=0030002
##IDEAL CHEMISTRY=Fe_2_O_3_H_3_Cl
##LOCALITY=x
##OWNER=PAPER_Kodera2022
##SOURCE=x
##DESCRIPTION=x
##STATUS=clearly identified
##URL=x
##MEASURED CHEMISTRY=Fe_2_O_3_H_3_Cl
100.4247231, 91.11235327
100.8642388, 91.67132476
101.3037546, 92.23029625
101.7432704, 99.49692566
102.1827862, 100.6148686
102.6223019, 101.7328116
103.0618177, 102.2917831
103.5013335, 102.2917831
103.9408493, 102.2917831
104.380365, 102.2917831
104.8198808, 102.2917831
105.2593966, 101.1738401
105.6989124, 135.2711012
106.1384282, 138.0659586
106.5779439, 143.6556736
107.0174597, 143.6556736
107.4569755, 164.3376188
107.8964913, 169.3683622
108.336007, 174.9580771
108.7755228, 180.5477921
109.2150386, 188.9323644
109.6545544, 195.0810509
110.0940701, 198.4348798
110.5335859, 213.5271101
110.9731017, 228.6193404
111.4126175, 312.4650643
111.8521332, 325.8803801
112.291649, 347.1212968
112.7311648, 356.6238122
113.1706806, 359.9776411
113.6101963, 363.8904416
114.0497121, 441.0285075
114.4892279, 462.8283958
114.9287437, 615.4276132
115.3682594, 642.8172163
115.8077752, 667.411962
116.247291, 794.2984908
116.6868068, 802.6830632
117.1263225, 813.3035215
117.5658383, 990.4974846
118.0053541, 990.4974846
118.4448699, 990.4974846
118.8843856, 990.4974846
119.3239014, 990.4974846
119.7634172, 990.4974846
120.202933, 990.4974846
120.6424487, 990.4974846
121.0819645, 991.0564561
121.5214803, 991.0564561
121.9609961, 991.0564561
122.4005119, 991.0564561
122.8400276, 991.0564561
123.2795434, 991.0564561
123.7190592, 991.0564561
124.158575, 991.0564561
124.5980907, 991.0564561
125.0376065, 991.0564561
125.4771223, 980.4359978
125.9166381, 969.8155394
126.3561538, 959.7540525
126.7956696, 934.6003354
127.2351854, 925.09782
127.6747012, 917.8311906
128.1142169, 763.5550587
128.5537327, 738.4013415
128.9932485, 706.5399665
129.4327643, 666.8529905
129.87228, 627.724986
130.3117958, 607.0430408
130.7513116, 555.058692
131.1908274, 555.058692
131.6303431, 555.058692
132.0698589, 482.392398
132.5093747, 480.7154835
132.9488905, 460.0335383
133.3884062, 460.0335383
133.827922, 444.941308
134.2674378, 429.8490777
134.7069536, 404.136389
135.1464693, 325.8803801
135.5859851, 318.0547792
136.0255009, 310.2291783
136.4650167, 292.901062
136.9045324, 292.901062
137.3440482, 288.9882616
137.783564, 276.6908888
138.2230798, 259.3627725
138.6625955, 258.803801
139.1021113, 258.803801
139.5416271, 251.5371716
139.9811429, 249.8602571
140.4206587, 248.1833426
140.8601744, 244.8295137
141.2996902, 236.4449413
141.739206, 220.7937395
142.1787218, 212.4091671
142.6182375, 209.6143097
143.0577533, 206.8194522
143.4972691, 204.0245947
143.9367849, 204.0245947
144.3763006, 202.9066518
144.8158164, 203.4656233
145.2553322, 204.0245947
145.694848, 205.1425377
146.1343637, 207.9373952
146.5738795, 211.8501956
147.0133953, 217.9988821
147.4529111, 225.824483
147.8924268, 230.2962549
148.3319426, 268.8652879
148.7714584, 278.9267747
149.2109742, 294.5779765
149.6504899, 304.0804919
150.0900057, 315.2599217
150.5295215, 324.7624371
150.9690373, 567.3560648
151.408553, 575.1816657
151.8480688, 605.3661263
152.2875846, 628.2839575
152.7271004, 673.5606484
153.1666161, 764.6730017
153.6061319, 773.6165456
154.0456477, 779.765232
154.4851635, 826.7188373
154.9246792, 837.8982672
155.364195, 906.6517608
155.8037108, 949.1335942
156.2432266, 949.1335942
156.6827423, 954.1643376
157.1222581, 954.1643376
157.5617739, 954.1643376
158.0012897, 954.1643376
158.4408055, 954.1643376
158.8803212, 953.6053661
159.319837, 942.4259363
159.7593528, 937.9541643
160.1988686, 925.09782
160.6383843, 907.7697037
161.0779001, 886.528787
161.5174159, 828.9547233
161.9569317, 789.8267188
162.3964474, 778.647289
162.8359632, 730.0167691
163.275479, 730.0167691
163.7149948, 698.7143656
164.1545105, 689.2118502
164.5940263, 603.6892119
165.0335421, 579.0944662
165.4730579, 570.1509223
165.9125736, 547.2330911
166.3520894, 369.4801565
166.7916052, 344.8854108
167.231121, 340.9726104
167.6706367, 302.9625489
168.1101525, 297.372834
168.5496683, 297.372834
168.9891841, 286.7523756
169.4286998, 269.4242594
169.8682156, 262.7166015
170.3077314, 239.2397988
170.7472472, 235.8859698
171.1867629, 227.5013974
171.6262787, 217.4399106
172.0657945, 214.6450531
172.5053103, 211.2912241
172.944826, 207.9373952
173.3843418, 201.7887088
173.8238576, 186.137507
174.2633734, 185.019564
174.7028892, 184.4605925
175.1424049, 184.4605925
175.5819207, 184.4605925
176.0214365, 184.4605925
176.4609523, 185.019564
176.900468, 197.3169368
177.3399838, 197.3169368
177.7794996, 197.3169368
178.2190154, 198.4348798
178.6585311, 213.5271101
179.0980469, 213.5271101
179.5375627, 213.5271101
179.9770785, 213.5271101
180.4165942, 213.5271101
180.85611, 212.9681386
181.2956258, 212.4091671
181.7351416, 212.4091671
182.1746573, 219.116825
182.6141731, 221.352711
183.0536889, 224.1475685
183.4932047, 225.824483
183.9327204, 227.5013974
184.3722362, 229.1783119
184.811752, 231.4141979
185.2512678, 244.8295137
185.6907835, 248.7423141
186.1302993, 256.567915
186.5698151, 262.15763
187.0093309, 265.5114589
187.4488466, 268.8652879
187.8883624, 269.4242594
188.3278782, 270.5422023
188.767394, 270.5422023
189.2069097, 270.5422023
189.6464255, 270.5422023
190.0859413, 270.5422023
190.5254571, 269.9832309
190.9649728, 269.4242594
191.4044886, 268.3063164
191.8440044, 265.5114589
192.2835202, 262.15763
192.723036, 256.0089435
193.1625517, 250.9782001
193.6020675, 248.1833426
194.0415833, 240.3577418
194.4810991, 240.3577418
194.9206148, 238.1218558
195.3601306, 235.8859698
195.7996464, 235.8859698
196.2391622, 233.0911124
196.6786779, 226.9424259
197.1181937, 226.9424259
197.5577095, 224.1475685
197.9972253, 221.9116825
198.436741, 220.234768
198.8762568, 217.9988821
199.3157726, 213.5271101
199.7552884, 210.1732812
200.1948041, 206.8194522
200.6343199, 202.3476803
201.0738357, 198.4348798
201.5133515, 197.3169368
201.9528672, 197.8759083
202.392383, 198.9938513
202.8318988, 200.6707658
203.2714146, 200.6707658
203.7109303, 200.6707658
204.1504461, 200.6707658
204.5899619, 200.6707658
205.0294777, 199.5528228
205.4689934, 199.5528228
205.9085092, 198.4348798
206.348025, 192.8451649
206.7875408, 188.9323644
207.2270565, 188.9323644
207.6665723, 188.9323644
208.1060881, 188.9323644
208.5456039, 188.9323644
208.9851196, 188.9323644
209.4246354, 188.9323644
209.8641512, 187.8144215
210.303667, 186.137507
210.7431828, 173.8401342
211.1826985, 171.6042482
211.6222143, 166.0145333
212.0617301, 166.0145333
212.5012459, 157.0709894
212.9407616, 152.0402459
213.3802774, 149.2453885
213.8197932, 147.568474
214.259309, 146.450531
214.6988247, 145.332588
215.1383405, 138.6249301
215.5778563, 138.6249301
216.0173721, 138.6249301
216.4568878, 136.9480157
216.8964036, 134.1531582
217.3359194, 124.0916713
217.7754352, 124.0916713
218.2149509, 124.0916713
218.6544667, 122.9737283
219.0939825, 122.9737283
219.5334983, 122.4147568
219.973014, 122.4147568
220.4125298, 121.8557854
220.8520456, 121.8557854
221.2915614, 121.2968139
221.7310771, 120.7378424
222.1705929, 120.1788709
222.6101087, 115.7070989
223.0496245, 115.7070989
223.4891402, 115.7070989
223.928656, 114.589156
224.3681718, 112.9122415
224.8076876, 111.235327
225.2472033, 108.999441
225.6867191, 106.7635551
226.1262349, 105.0866406
226.5657507, 107.3225266
227.0052664, 108.4404695
227.4447822, 109.5584125
227.884298, 109.5584125
228.3238138, 110.117384
228.7633296, 110.117384
229.2028453, 110.117384
229.6423611, 110.117384
230.0818769, 110.117384
230.5213927, 109.5584125
230.9609084, 108.999441
231.4004242, 108.999441
231.83994, 108.999441
232.2794558, 106.2045836
232.7189715, 100.6148686
233.1584873, 93.90721073
233.5980031, 92.78926775
234.0375189, 91.67132476
234.4770346, 89.99441029
234.9165504, 88.31749581
235.3560662, 86.64058133
235.795582, 84.40469536
236.2350977, 83.28675238
236.6746135, 78.81498044
237.1141293, 78.81498044
237.5536451, 78.81498044
237.9931608, 78.81498044
238.4326766, 78.81498044
238.8721924, 78.25600894
239.3117082, 77.13806596
239.7512239, 76.57909447
240.1907397, 75.46115148
240.6302555, 72.10732253
241.0697713, 68.19452208
241.509287, 67.07657909
241.9488028, 65.95863611
242.3883186, 64.84069312
242.8278344, 64.28172163
243.2673501, 64.28172163
243.7068659, 64.28172163
244.1463817, 64.28172163
244.5858975, 64.28172163
245.0254133, 62.60480715
245.464929, 62.60480715
245.9044448, 64.28172163
246.3439606, 72.10732253
246.7834764, 72.10732253
247.2229921, 72.10732253
247.6625079, 72.10732253
248.1020237, 72.10732253
248.5415395, 72.10732253
248.9810552, 72.10732253
249.420571, 72.10732253
249.8600868, 72.10732253
250.2996026, 72.10732253
250.7391183, 71.54835103
251.1786341, 71.54835103
251.6181499, 69.87143656
252.0576657, 69.87143656
252.4971814, 69.87143656
252.9366972, 61.48686417
253.376213, 59.2509782
253.8157288, 56.45612074
254.2552445, 53.10229178
254.6947603, 49.74846283
255.1342761, 46.95360537
255.5737919, 43.04080492
256.0133076, 41.92286193
256.4528234, 44.7177194
256.8923392, 48.07154835
257.331855, 53.10229178
257.7713707, 58.69200671
258.2108865, 63.72275014
258.6504023, 68.19452208
259.0899181, 77.13806596
259.5294338, 77.69703745
259.9689496, 78.81498044
260.4084654, 78.81498044
260.8479812, 78.81498044
261.2874969, 78.81498044
261.7270127, 78.81498044
262.1665285, 78.25600894
262.6060443, 78.25600894
263.0455601, 76.57909447
263.4850758, 73.784237
263.9245916, 73.784237
264.3641074, 73.784237
264.8036232, 69.87143656
265.2431389, 65.95863611
265.6826547, 50.30743432
266.1221705, 50.86640581
266.5616863, 50.86640581
267.001202, 50.86640581
267.4407178, 50.86640581
267.8802336, 51.42537731
268.3197494, 51.42537731
268.7592651, 63.72275014
269.1987809, 63.72275014
269.6382967, 63.72275014
270.0778125, 63.72275014
270.5173282, 63.72275014
270.956844, 58.13303522
271.3963598, 64.84069312
271.8358756, 64.84069312
272.2753913, 65.95863611
272.7149071, 66.5176076
273.1544229, 78.25600894
273.5939387, 78.81498044
274.0334544, 79.37395193
274.4729702, 80.49189491
274.912486, 80.49189491
275.3520018, 80.49189491
275.7915175, 80.49189491
276.2310333, 80.49189491
276.6705491, 80.49189491
277.1100649, 80.49189491
277.5495806, 78.81498044
277.9890964, 78.81498044
278.4286122, 78.81498044
278.868128, 78.25600894
279.3076437, 77.13806596
279.7471595, 72.10732253
280.1866753, 68.75349357
280.6261911, 77.13806596
281.0657069, 79.93292342
281.5052226, 81.6098379
281.9447384, 81.6098379
282.3842542, 84.40469536
282.82377, 84.40469536
283.2632857, 84.40469536
283.7028015, 84.40469536
284.1423173, 84.40469536
284.5818331, 84.40469536
285.0213488, 84.40469536
285.4608646, 84.40469536
285.9003804, 84.40469536
286.3398962, 83.84572387
286.7794119, 83.28675238
287.2189277, 81.6098379
287.6584435, 79.93292342
288.0979593, 87.19955282
288.537475, 88.31749581
288.9769908, 89.43543879
289.4165066, 90.55338178
289.8560224, 91.11235327
290.2955381, 94.46618222
290.7350539, 97.26103969
291.1745697, 97.82001118
291.6140855, 97.82001118
292.0536012, 98.37898267
292.493117, 98.93795416
292.9326328, 99.49692566
293.3721486, 100.0558971
293.8116643, 100.0558971
294.2511801, 101.1738401
294.6906959, 101.1738401
295.1302117, 101.1738401
295.5697274, 101.1738401
296.0092432, 101.1738401
296.448759, 101.1738401
296.8882748, 101.1738401
297.3277906, 99.49692566
297.7673063, 103.9686976
298.2068221, 106.2045836
298.6463379, 107.3225266
299.0858537, 107.3225266
299.5253694, 107.3225266
299.9648852, 108.999441
300.404401, 111.7942985
300.8439168, 114.589156
301.2834325, 116.8250419
301.7229483, 116.8250419
302.1624641, 116.8250419
302.6019799, 124.0916713
303.0414956, 126.8865288
303.4810114, 132.4762437
303.9205272, 136.9480157
304.360043, 140.3018446
304.7995587, 140.3018446
305.2390745, 145.332588
305.6785903, 163.7786473
306.1181061, 164.8965903
306.5576218, 167.1324762
306.9971376, 167.1324762
307.4366534, 167.1324762
307.8761692, 169.3683622
308.3156849, 169.9273337
308.7552007, 171.0452767
309.1947165, 171.0452767
309.6342323, 171.0452767
310.073748, 171.0452767
310.5132638, 171.0452767
310.9527796, 170.4863052
311.3922954, 170.4863052
311.8318111, 169.9273337
312.2713269, 176.0760201
312.7108427, 176.0760201
313.1503585, 182.2247065
313.5898742, 182.2247065
314.02939, 188.9323644
314.4689058, 192.2861934
314.9084216, 195.6400224
315.3479374, 204.5835662
315.7874531, 206.8194522
316.2269689, 207.3784237
316.6664847, 207.3784237
317.1060005, 207.3784237
317.5455162, 207.3784237
317.985032, 207.3784237
318.4245478, 207.3784237
318.8640636, 206.8194522
319.3035793, 206.8194522
319.7430951, 206.8194522
320.1826109, 206.8194522
320.6221267, 206.8194522
321.0616424, 184.4605925
321.5011582, 184.4605925
321.940674, 182.2247065
322.3801898, 179.4298491
322.8197055, 176.6349916
323.2592213, 172.1632197
323.6987371, 164.3376188
324.1382529, 163.2196758
324.5777686, 151.4812745
325.0172844, 148.686417
325.4568002, 142.5377306
325.896316, 142.5377306
326.3358317, 142.5377306
326.7753475, 142.5377306
327.2148633, 141.9787591
327.6543791, 141.9787591
328.0938948, 141.9787591
328.5334106, 141.4197876
328.9729264, 131.3583007
329.4124422, 115.1481274
329.8519579, 113.471213
330.2914737, 113.471213
330.7309895, 113.471213
331.1705053, 113.471213
331.610021, 113.471213
332.0495368, 113.471213
332.4890526, 113.471213
332.9285684, 113.471213
333.3680842, 95.02515372
333.8075999, 95.02515372
334.2471157, 89.99441029
334.6866315, 93.90721073
335.1261473, 97.26103969
335.565663, 101.1738401
336.0051788, 104.5276691
336.4446946, 107.3225266
336.8842104, 110.6763555
337.3237261, 116.8250419
337.7632419, 116.8250419
338.2027577, 116.8250419
338.6422735, 116.8250419
339.0817892, 116.8250419
339.521305, 116.8250419
339.9608208, 116.8250419
340.4003366, 116.2660704
340.8398523, 115.7070989
341.2793681, 115.1481274
341.7188839, 114.589156
342.1583997, 110.6763555
342.5979154, 110.6763555
343.0374312, 110.6763555
343.476947, 110.6763555
343.9164628, 114.589156
344.3559785, 115.7070989
344.7954943, 118.5019564
345.2350101, 124.6506428
345.6745259, 125.7685858
346.1140416, 126.3275573
346.5535574, 126.8865288
346.9930732, 127.4455003
347.432589, 128.0044718
347.8721047, 128.0044718
348.3116205, 128.5634433
348.7511363, 129.1224148
349.1906521, 129.6813862
349.6301678, 130.2403577
350.0696836, 131.9172722
350.5091994, 133.0352152
350.9487152, 133.0352152
351.388231, 133.0352152
351.8277467, 133.0352152
352.2672625, 133.0352152
352.7067783, 133.0352152
353.1462941, 132.4762437
353.5858098, 131.9172722
354.0253256, 130.7993292
354.4648414, 129.6813862
354.9043572, 128.5634433
355.3438729, 126.3275573
355.7833887, 122.9737283
356.2229045, 94.46618222
356.6624203, 95.02515372
357.101936, 95.02515372
357.5414518, 95.02515372
357.9809676, 95.58412521
358.4204834, 98.93795416
358.8599991, 106.2045836
359.2995149, 114.589156
359.7390307, 117.3840134
360.1785465, 117.3840134
360.6180622, 117.3840134
361.057578, 117.9429849
361.4970938, 117.9429849
361.9366096, 117.9429849
362.3761253, 117.9429849
362.8156411, 117.9429849
363.2551569, 117.3840134
363.6946727, 117.3840134
364.1341884, 117.3840134
364.5737042, 117.3840134
365.01322, 117.3840134
365.4527358, 114.589156
365.8922515, 114.589156
366.3317673, 114.0301845
366.7712831, 113.471213
367.2107989, 113.471213
367.6503147, 112.35327
368.0898304, 111.235327
368.5293462, 110.117384
368.968862, 109.5584125
369.4083778, 110.117384
369.8478935, 110.117384
370.2874093, 110.117384
370.7269251, 111.7942985
371.1664409, 112.9122415
371.6059566, 114.589156
372.0454724, 116.8250419
372.4849882, 119.6198994
372.924504, 119.6198994
373.3640197, 119.6198994
373.8035355, 128.5634433
374.2430513, 131.3583007
374.6825671, 134.1531582
375.1220828, 136.9480157
375.5615986, 139.1839016
376.0011144, 141.4197876
376.4406302, 144.2146451
376.8801459, 148.1274455
377.3196617, 150.922303
377.7591775, 150.922303
378.1986933, 152.0402459
378.638209, 152.0402459
379.0777248, 152.0402459
379.5172406, 152.0402459
379.9567564, 152.0402459
380.3962721, 150.922303
380.8357879, 150.922303
381.2753037, 150.922303
381.7148195, 150.922303
382.1543352, 150.922303
382.593851, 150.922303
383.0333668, 150.3633315
383.4728826, 139.7428731
383.9123983, 158.1889324
384.3519141, 163.7786473
384.7914299, 167.6914477
385.2309457, 167.6914477
385.6704615, 168.2504192
386.1099772, 172.7221912
386.549493, 174.3991056
386.9890088, 174.3991056
387.4285246, 176.6349916
387.8680403, 176.6349916
388.3075561, 177.1939631
388.7470719, 179.9888206
389.1865877, 181.1067636
389.6261034, 181.1067636
390.0656192, 181.1067636
390.505135, 183.901621
390.9446508, 185.019564
391.3841665, 196.7579653
391.8236823, 196.7579653
392.2631981, 200.6707658
392.7027139, 203.4656233
393.1422296, 203.4656233
393.5817454, 203.4656233
394.0212612, 207.3784237
394.460777, 207.3784237
394.9002927, 207.3784237
395.3398085, 207.3784237
395.7793243, 207.3784237
396.2188401, 212.4091671
396.6583558, 214.6450531
397.0978716, 214.6450531
397.5373874, 231.9731694
397.9769032, 231.9731694
398.4164189, 236.4449413
398.8559347, 239.2397988
399.2954505, 240.9167132
399.7349663, 242.0346562
400.174482, 242.0346562
400.6139978, 245.3884852
401.0535136, 247.6243712
401.4930294, 252.6551146
401.9325451, 262.15763
402.3720609, 283.9575182
402.8115767, 307.4343208
403.2510925, 309.6702068
403.6906083, 311.3471213
404.130124, 314.1419788
404.5696398, 315.8188932
405.0091556, 318.6137507
405.4486714, 320.8496367
405.8881871, 322.5265511
406.3277029, 322.5265511
406.7672187, 349.9161543
407.2067345, 355.5058692
407.6462502, 377.3057574
408.085766, 382.8954723
408.5252818, 389.0441587
408.9647976, 397.4287311
409.4043133, 403.5774176
409.8438291, 406.9312465
410.2833449, 409.1671325
410.7228607, 411.4030184
411.1623764, 413.6389044
411.6018922, 413.6389044
412.041408, 415.3158189
412.4809238, 415.8747904
412.9204395, 416.4337619
413.3599553, 416.9927334
413.7994711, 425.3773058
414.2389869, 433.2029067
414.6785026, 453.8848519
415.1180184, 486.8641699
415.5575342, 494.1307993
415.99705, 494.1307993
416.4365657, 501.9564002
416.8760815, 503.6333147
417.3155973, 503.6333147
417.7551131, 503.6333147
418.1946288, 503.6333147
418.6341446, 526.5511459
419.0736604, 528.7870319
419.5131762, 528.7870319
419.952692, 531.0229178
420.3922077, 532.1408608
420.8317235, 537.1716042
421.2712393, 537.7305757
421.7107551, 537.7305757
422.1502708, 537.7305757
422.5897866, 537.7305757
423.0293024, 537.7305757
423.4688182, 536.6126328
423.9083339, 536.0536613
424.3478497, 534.9357183
424.7873655, 534.3767468
425.2268813, 533.8177753
425.666397, 533.2588038
426.1059128, 531.5818893
426.5454286, 514.8127446
426.9849444, 504.7512577
427.4244601, 501.3974287
427.8639759, 486.8641699
428.3034917, 486.8641699
428.7430075, 479.5975405
429.1825232, 472.8898826
429.622039, 457.7976523
430.0615548, 454.4438234
430.5010706, 449.4130799
430.9405863, 444.941308
431.3801021, 442.1464505
431.8196179, 420.9055338
432.2591337, 410.2850755
432.6986494, 408.0491895
433.1381652, 404.136389
433.577681, 401.9005031
434.0171968, 401.9005031
434.4567125, 394.6338737
434.8962283, 391.8390162
435.3357441, 388.4851873
435.7752599, 372.275014
436.2147756, 372.275014
436.6542914, 372.275014
437.0938072, 354.9468977
437.533323, 352.1520402
437.9728388, 345.4443823
438.4123545, 333.705981
438.8518703, 328.6752376
439.2913861, 260.4807155
439.7309019, 257.1268865
440.1704176, 255.4499721
440.6099334, 253.7730576
441.0494492, 253.7730576
441.488965, 253.7730576
441.9284807, 253.7730576
442.3679965, 253.7730576
442.8075123, 229.7372834
443.2470281, 229.7372834
443.6865438, 229.7372834
444.1260596, 215.7629961
444.5655754, 207.9373952
445.0050912, 205.7015092
445.4446069, 205.1425377
445.8841227, 205.1425377
446.3236385, 202.3476803
446.7631543, 198.9938513
447.20267, 195.0810509
447.6421858, 178.3119061
448.0817016, 179.4298491
448.5212174, 179.4298491
448.9607331, 179.4298491
449.4002489, 179.4298491
449.8397647, 179.4298491
450.2792805, 178.3119061
450.7187962, 177.7529346
451.158312, 176.6349916
451.5978278, 175.5170486
452.0373436, 173.8401342
452.4768593, 160.4248183
452.9163751, 160.4248183
453.3558909, 160.4248183
453.7954067, 160.4248183
454.2349224, 161.5427613
454.6744382, 164.3376188
455.113954, 170.4863052
455.5534698, 181.665735
455.9929856, 182.783678
456.4325013, 183.3426495
456.8720171, 183.3426495
457.3115329, 183.3426495
457.7510487, 183.3426495
458.1905644, 183.3426495
458.6300802, 183.3426495
459.069596, 172.7221912
459.5091118, 172.7221912
459.9486275, 172.7221912
460.3881433, 133.0352152
460.8276591, 131.3583007
461.2671749, 127.4455003
461.7066906, 123.5326998
462.1462064, 118.5019564
462.5857222, 119.0609279
463.025238, 120.7378424
463.4647537, 122.4147568
463.9042695, 122.4147568
464.3437853, 122.4147568
464.7833011, 122.4147568
465.2228168, 122.4147568
465.6623326, 120.7378424
466.1018484, 120.7378424
466.5413642, 115.7070989
466.9808799, 109.5584125
467.4203957, 107.3225266
467.8599115, 107.3225266
468.2994273, 107.881498
468.738943, 108.999441
469.1784588, 110.117384
469.6179746, 110.6763555
470.0574904, 111.235327
470.4970061, 111.7942985
470.9365219, 114.0301845
471.3760377, 114.589156
471.8155535, 115.1481274
472.2550692, 115.7070989
472.694585, 115.7070989
473.1341008, 116.2660704
473.5736166, 116.2660704
474.0131324, 116.2660704
474.4526481, 116.2660704
474.8921639, 116.2660704
475.3316797, 116.2660704
475.7711955, 115.1481274
476.2107112, 112.9122415
476.650227, 110.6763555
477.0897428, 107.881498
477.5292586, 105.6456121
477.9687743, 105.6456121
478.4082901, 138.6249301
478.8478059, 139.1839016
479.2873217, 139.7428731
479.7268374, 139.7428731
480.1663532, 140.8608161
480.605869, 140.8608161
481.0453848, 140.8608161
481.4849005, 140.8608161
481.9244163, 140.8608161
482.3639321, 139.7428731
482.8034479, 138.6249301
483.2429636, 138.6249301
483.6824794, 132.4762437
484.1219952, 129.1224148
484.561511, 121.2968139
485.0010267, 116.8250419
485.4405425, 114.0301845
485.8800583, 111.7942985
486.3195741, 110.117384
486.7590898, 108.4404695
487.1986056, 106.7635551
487.6381214, 102.8507546
488.0776372, 102.8507546
488.5171529, 100.6148686
488.9566687, 97.82001118
489.3961845, 99.49692566
489.8357003, 101.1738401
490.2752161, 102.2917831
490.7147318, 103.4097261
491.1542476, 104.5276691
491.5937634, 104.5276691
492.0332792, 107.881498
492.4727949, 107.881498
492.9123107, 107.881498
493.3518265, 108.4404695
493.7913423, 113.471213
494.230858, 115.1481274
494.6703738, 117.9429849
495.1098896, 120.1788709
495.5494054, 120.1788709
495.9889211, 120.1788709
496.4284369, 120.1788709
496.8679527, 120.1788709
497.3074685, 119.6198994
497.7469842, 119.6198994
498.1865, 117.3840134
498.6260158, 117.3840134
499.0655316, 117.3840134
499.5050473, 116.8250419
499.9445631, 116.8250419
500.3840789, 116.8250419
500.8235947, 116.8250419
501.2631104, 116.8250419
501.7026262, 127.4455003
502.142142, 130.7993292
502.5816578, 130.7993292
503.0211735, 133.0352152
503.4606893, 133.5941867
503.9002051, 133.5941867
504.3397209, 133.5941867
504.7792366, 133.5941867
505.2187524, 133.5941867
505.6582682, 132.4762437
506.097784, 132.4762437
506.5372997, 132.4762437
506.9768155, 132.4762437
507.4163313, 131.3583007
507.8558471, 129.6813862
508.2953629, 126.8865288
508.7348786, 122.4147568
509.1743944, 119.0609279
509.6139102, 116.8250419
510.053426, 115.1481274
510.4929417, 123.5326998
510.9324575, 125.7685858
511.3719733, 125.7685858
511.8114891, 125.7685858
512.2510048, 126.8865288
512.6905206, 128.5634433
513.1300364, 129.6813862
513.5695522, 130.7993292
514.0090679, 131.9172722
514.4485837, 133.5941867
514.8880995, 135.8300727
515.3276153, 135.8300727
515.767131, 136.3890442
516.2066468, 136.3890442
516.6461626, 136.3890442
517.0856784, 136.3890442
517.5251941, 136.3890442
517.9647099, 135.8300727
518.4042257, 133.5941867
518.8437415, 132.4762437
519.2832572, 132.4762437
519.722773, 132.4762437
520.1622888, 132.4762437
520.6018046, 127.4455003
521.0413203, 118.5019564
521.4808361, 120.1788709
521.9203519, 121.2968139
522.3598677, 121.8557854
522.7993834, 122.4147568
523.2388992, 122.4147568
523.678415, 122.4147568
524.1179308, 122.4147568
524.5574465, 122.4147568
524.9969623, 122.4147568
525.4364781, 121.8557854
525.8759939, 121.2968139
526.3155097, 125.7685858
526.7550254, 125.7685858
527.1945412, 154.8351034
527.634057, 154.8351034
528.0735728, 154.8351034
528.5130885, 154.8351034
528.9526043, 154.8351034
529.3921201, 154.8351034
529.8316359, 154.2761319
530.2711516, 153.7171604
530.7106674, 153.7171604
531.1501832, 153.7171604
531.589699, 153.7171604
532.0292147, 152.5992174
532.4687305, 151.4812745
532.9082463, 139.7428731
533.3477621, 141.4197876
533.7872778, 142.5377306
534.2267936, 144.2146451
534.6663094, 145.332588
535.1058252, 146.450531
535.5453409, 147.568474
535.9848567, 147.568474
536.4243725, 147.568474
536.8638883, 150.3633315
537.303404, 159.3068753
537.7429198, 159.3068753
538.1824356, 159.3068753
538.6219514, 160.4248183
539.0614671, 160.4248183
539.5009829, 162.1017328
539.9404987, 162.1017328
540.3800145, 162.1017328
540.8195302, 162.1017328
541.259046, 162.1017328
541.6985618, 160.4248183
542.1380776, 158.7479039
542.5775934, 157.0709894
543.0171091, 148.1274455
543.4566249, 148.686417
543.8961407, 150.922303
544.3356565, 152.5992174
544.7751722, 152.5992174
545.214688, 153.1581889
545.6542038, 153.1581889
546.0937196, 153.1581889
546.5332353, 153.1581889
546.9727511, 153.7171604
547.4122669, 153.7171604
547.8517827, 153.7171604
548.2912984, 153.7171604
548.7308142, 153.7171604
549.17033, 153.7171604
549.6098458, 153.7171604
550.0493615, 153.7171604
550.4888773, 157.0709894
550.9283931, 182.2247065
551.3679089, 185.019564
551.8074246, 192.2861934
552.2469404, 192.2861934
552.6864562, 192.2861934
553.125972, 195.0810509
553.5654877, 210.1732812
554.0050035, 210.1732812
554.4445193, 210.1732812
554.8840351, 210.1732812
555.3235508, 210.1732812
555.7630666, 210.1732812
556.2025824, 209.0553382
556.6420982, 207.9373952
557.0816139, 204.5835662
557.5211297, 172.1632197
557.9606455, 169.9273337
558.4001613, 166.5735048
558.839677, 163.7786473
559.2791928, 160.9837898
559.7187086, 157.6299609
560.1582244, 143.6556736
560.5977402, 141.9787591
561.0372559, 144.2146451
561.4767717, 147.0095025
561.9162875, 150.922303
562.3558033, 154.8351034
562.795319, 158.1889324
563.2348348, 160.9837898
563.6743506, 163.2196758
564.1138664, 166.0145333
564.5533821, 168.8093907
564.9928979, 168.8093907
565.4324137, 168.8093907
565.8719295, 177.1939631
566.3114452, 178.8708776
566.750961, 178.8708776
567.1904768, 178.8708776
567.6299926, 178.8708776
568.0695083, 178.8708776
568.5090241, 178.8708776
568.9485399, 178.8708776
569.3880557, 178.8708776
569.8275714, 178.8708776
570.2670872, 179.9888206
570.706603, 179.9888206
571.1461188, 179.9888206
571.5856345, 179.9888206
572.0251503, 181.665735
572.4646661, 185.019564
572.9041819, 186.137507
573.3436976, 192.2861934
573.7832134, 193.9631079
574.2227292, 195.6400224
574.662245, 197.3169368
575.1017607, 199.5528228
575.5412765, 201.7887088
575.9807923, 210.7322527
576.4203081, 215.7629961
576.8598238, 215.7629961
577.2993396, 215.7629961
577.7388554, 215.7629961
578.1783712, 215.7629961
578.617887, 215.2040246
579.0574027, 215.2040246
579.4969185, 215.2040246
579.9364343, 215.2040246
580.3759501, 213.5271101
580.8154658, 213.5271101
581.2549816, 218.5578535
581.6944974, 222.470654
582.1340132, 225.2655115
582.5735289, 228.0603689
583.0130447, 228.0603689
583.4525605, 229.1783119
583.8920763, 230.2962549
584.331592, 231.9731694
584.7711078, 233.6500838
585.2106236, 235.8859698
585.6501394, 238.1218558
586.0896551, 240.9167132
586.5291709, 243.7115707
586.9686867, 246.5064282
587.4082025, 249.3012856
587.8477182, 253.2140861
588.287234, 261.039687
588.7267498, 261.039687
589.1662656, 261.039687
589.6057813, 279.4857462
590.0452971, 279.4857462
590.4848129, 280.6036892
590.9243287, 281.7216322
591.3638444, 281.7216322
591.8033602, 281.7216322
592.242876, 282.2806037
592.6823918, 288.4292901
593.1219075, 297.9318055
593.5614233, 300.7266629
594.0009391, 301.8446059
594.4404549, 302.4035774
594.8799706, 302.9625489
595.3194864, 303.5215204
595.7590022, 304.0804919
596.198518, 304.6394634
596.6380338, 306.3163779
597.0775495, 313.5830073
597.5170653, 320.2906652
597.9565811, 323.6444941
598.3960969, 325.8803801
598.8356126, 327.5572946
599.2751284, 328.6752376
599.7146442, 328.6752376
600.15416, 329.7931805
600.5936757, 336.5008385
601.0331915, 336.5008385
601.4727073, 339.2956959
601.9122231, 340.4136389
602.3517388, 341.5315819
602.7912546, 342.6495249
603.2307704, 343.7674679
603.6702862, 345.4443823
604.1098019, 345.4443823
604.5493177, 345.4443823
604.9888335, 345.4443823
605.4283493, 346.0033538
605.867865, 346.0033538
606.3073808, 346.0033538
606.7468966, 346.0033538
607.1864124, 346.0033538
607.6259281, 346.0033538
608.0654439, 345.4443823
608.5049597, 343.2084964
608.9444755, 336.5008385
609.3839912, 333.1470095
609.823507, 333.705981
610.2630228, 351.0340973
610.7025386, 354.9468977
611.1420543, 354.9468977
611.5815701, 357.1827837
612.0210859, 357.1827837
612.4606017, 357.1827837
612.9001175, 357.1827837
613.3396332, 357.1827837
613.779149, 354.9468977
614.2186648, 354.9468977
614.6581806, 352.1520402
615.0976963, 342.0905534
615.5372121, 342.0905534
615.9767279, 341.5315819
616.4162437, 342.0905534
616.8557594, 342.6495249
617.2952752, 343.2084964
617.734791, 344.3264394
618.1743068, 344.8854108
618.6138225, 345.4443823
619.0533383, 345.4443823
619.4928541, 345.4443823
619.9323699, 345.4443823
620.3718856, 345.4443823
620.8114014, 345.4443823
621.2509172, 344.8854108
621.690433, 343.7674679
622.1299487, 343.7674679
622.5694645, 343.7674679
623.0089803, 343.2084964
623.4484961, 339.8546674
623.8880118, 332.0290665
624.3275276, 328.6752376
624.7670434, 325.3214086
625.2065592, 311.3471213
625.6460749, 308.5522638
626.0855907, 307.4343208
626.5251065, 306.3163779
626.9646223, 304.6394634
627.404138, 301.2856344
627.8436538, 296.8138625
628.2831696, 293.4600335
628.7226854, 290.6651761
629.1622011, 288.9882616
629.6017169, 246.5064282
630.0412327, 246.5064282
630.4807485, 245.3884852
630.9202643, 244.8295137
631.35978, 244.8295137
631.7992958, 244.8295137
632.2388116, 244.2705422
632.6783274, 243.1525992
633.1178431, 243.1525992
633.5573589, 241.4756847
633.9968747, 220.7937395
634.4363905, 213.5271101
634.8759062, 213.5271101
635.315422, 214.0860816
635.7549378, 214.0860816
636.1944536, 214.0860816
636.6339693, 214.0860816
637.0734851, 214.0860816
637.5130009, 213.5271101
637.9525167, 212.9681386
638.3920324, 212.4091671
638.8315482, 211.8501956
639.271064, 211.2912241
639.7105798, 210.1732812
640.1500955, 209.6143097
640.5896113, 209.0553382
641.0291271, 207.9373952
641.4686429, 202.3476803
641.9081586, 194.5220794
642.3476744, 187.8144215
642.7871902, 187.8144215
643.226706, 184.4605925
643.6662217, 184.4605925
644.1057375, 183.901621
644.5452533, 183.901621
644.9847691, 183.901621
645.4242848, 183.901621
645.8638006, 183.901621
646.3033164, 183.901621
646.7428322, 183.901621
647.1823479, 183.901621
647.6218637, 183.3426495
648.0613795, 182.2247065
648.5008953, 181.1067636
648.9404111, 169.9273337
649.3799268, 168.2504192
649.8194426, 168.2504192
650.2589584, 168.2504192
650.6984742, 167.6914477
651.1379899, 167.1324762
651.5775057, 166.5735048
652.0170215, 166.0145333
652.4565373, 166.0145333
652.896053, 163.2196758
653.3355688, 163.2196758
653.7750846, 159.8658468
654.2146004, 158.1889324
654.6541161, 158.1889324
655.0936319, 164.8965903
655.5331477, 170.4863052
655.9726635, 178.8708776
656.4121792, 182.2247065
656.851695, 184.4605925
657.2912108, 187.8144215
657.7307266, 188.9323644
658.1702423, 188.9323644
658.6097581, 190.6092789
659.0492739, 191.1682504
659.4887897, 191.1682504
659.9283054, 191.1682504
660.3678212, 191.1682504
660.807337, 191.1682504
661.2468528, 198.9938513
661.6863685, 200.6707658
662.1258843, 207.9373952
662.5654001, 207.9373952
663.0049159, 220.234768
663.4444316, 226.9424259
663.8839474, 230.2962549
664.3234632, 245.9474567
664.762979, 255.4499721
665.2024948, 261.5986585
665.6420105, 263.8345444
666.0815263, 265.5114589
666.5210421, 267.1883734
666.9605579, 268.8652879
667.4000736, 271.6601453
667.8395894, 273.3370598
668.2791052, 275.5729458
668.718621, 277.2498603
669.1581367, 277.2498603
669.5976525, 278.3678032
670.0371683, 278.9267747
670.4766841, 278.9267747
670.9161998, 280.6036892
671.3557156, 281.7216322
671.7952314, 281.7216322
672.2347472, 281.7216322
672.6742629, 281.7216322
673.1137787, 281.7216322
673.5532945, 281.7216322
673.9928103, 281.7216322
674.432326, 281.7216322
674.8718418, 281.7216322
675.3113576, 279.4857462
675.7508734, 278.9267747
676.1903891, 278.3678032
676.6299049, 278.3678032
677.0694207, 278.3678032
677.5089365, 276.1319173
677.9484522, 270.5422023
678.387968, 262.15763
678.8274838, 238.1218558
679.2669996, 228.6193404
679.7065153, 220.7937395
680.1460311, 206.2604807
680.5855469, 201.2297373
681.0250627, 197.3169368
681.4645784, 192.8451649
681.9040942, 188.373393
682.34361, 185.5785355
682.7831258, 183.901621
683.2226416, 182.2247065
683.6621573, 182.2247065
684.1016731, 183.3426495
684.5411889, 183.3426495
684.9807047, 183.3426495
685.4202204, 183.3426495
685.8597362, 183.3426495
686.299252, 182.783678
686.7387678, 182.783678
687.1782835, 181.1067636
687.6177993, 179.4298491
688.0573151, 178.8708776
688.4968309, 166.0145333
688.9363466, 130.2403577
689.3758624, 130.2403577
689.8153782, 130.2403577
690.254894, 130.2403577
690.6944097, 124.0916713
691.1339255, 133.0352152
691.5734413, 133.0352152
692.0129571, 133.0352152
692.4524728, 141.9787591
692.8919886, 143.0967021
693.3315044, 145.332588
693.7710202, 146.450531
694.2105359, 146.450531
694.6500517, 147.0095025
695.0895675, 147.0095025
695.5290833, 147.0095025
695.968599, 147.0095025
696.4081148, 147.0095025
696.8476306, 144.2146451
697.2871464, 124.0916713
697.7266621, 112.35327
698.1661779, 110.117384
698.6056937, 110.117384
699.0452095, 110.117384
699.4847252, 110.117384
699.924241, 107.3225266
700.3637568, 107.3225266
700.8032726, 113.471213
701.2427884, 120.7378424
701.6823041, 125.7685858
702.1218199, 130.7993292
702.5613357, 130.7993292
703.0008515, 153.1581889
703.4403672, 161.5427613
703.879883, 163.2196758
704.3193988, 164.8965903
704.7589146, 164.8965903
705.1984303, 168.2504192
705.6379461, 169.9273337
706.0774619, 170.4863052
706.5169777, 170.4863052
706.9564934, 170.4863052
707.3960092, 170.4863052
707.835525, 170.4863052
708.2750408, 169.9273337
708.7145565, 169.9273337
709.1540723, 168.2504192
709.5935881, 166.0145333
710.0331039, 164.3376188
710.4726196, 162.1017328
710.9121354, 159.8658468
711.3516512, 156.5120179
711.791167, 153.1581889
712.2306827, 131.3583007
712.6701985, 129.1224148
713.1097143, 132.4762437
713.5492301, 138.0659586
713.9887458, 140.3018446
714.4282616, 140.3018446
714.8677774, 140.3018446
715.3072932, 140.3018446
715.7468089, 140.3018446
716.1863247, 140.3018446
716.6258405, 140.3018446
717.0653563, 140.3018446
717.5048721, 140.3018446
717.9443878, 141.9787591
718.3839036, 142.5377306
718.8234194, 142.5377306
719.2629352, 142.5377306
719.7024509, 142.5377306
720.1419667, 142.5377306
720.5814825, 141.9787591
721.0209983, 141.9787591
721.460514, 141.9787591
721.9000298, 141.9787591
722.3395456, 141.9787591
722.7790614, 140.8608161
723.2185771, 139.1839016
723.6580929, 136.9480157
724.0976087, 134.1531582
724.5371245, 131.3583007
724.9766402, 128.5634433
725.416156, 125.7685858
725.8556718, 122.9737283
726.2951876, 121.8557854
726.7347033, 121.8557854
727.1742191, 122.9737283
727.6137349, 135.2711012
728.0532507, 142.5377306
728.4927664, 146.450531
728.9322822, 146.450531
729.371798, 147.0095025
729.8113138, 147.0095025
730.2508295, 147.568474
730.6903453, 147.568474
731.1298611, 147.568474
731.5693769, 147.568474
732.0088926, 150.3633315
732.4484084, 153.7171604
732.8879242, 154.8351034
733.32744, 157.6299609
733.7669557, 158.1889324
734.2064715, 158.1889324
734.6459873, 158.1889324
735.0855031, 158.1889324
735.5250189, 158.1889324
735.9645346, 158.1889324
736.4040504, 157.6299609
736.8435662, 155.9530464
737.283082, 153.7171604
737.7225977, 149.80436
738.1621135, 145.8915595
738.6016293, 140.3018446
739.0411451, 135.2711012
739.4806608, 130.2403577
739.9201766, 127.4455003
740.3596924, 127.4455003
740.7992082, 127.4455003
741.2387239, 127.4455003
741.6782397, 127.4455003
742.1177555, 127.4455003
742.5572713, 127.4455003
742.996787, 127.4455003
743.4363028, 126.3275573
743.8758186, 125.2096143
744.3153344, 123.5326998
744.7548501, 121.8557854
745.1943659, 127.4455003
745.6338817, 131.9172722
746.0733975, 133.0352152
746.5129132, 133.0352152
746.952429, 133.0352152
747.3919448, 133.0352152
747.8314606, 133.0352152
748.2709763, 133.0352152
748.7104921, 133.0352152
749.1500079, 132.4762437
749.5895237, 132.4762437
750.0290394, 130.7993292
750.4685552, 130.7993292
750.908071, 130.7993292
751.3475868, 126.8865288
751.7871025, 126.8865288
752.2266183, 121.8557854
752.6661341, 121.8557854
753.1056499, 119.6198994
753.5451657, 117.3840134
753.9846814, 115.7070989
754.4241972, 113.471213
754.863713, 114.589156
755.3032288, 119.0609279
755.7427445, 122.9737283
756.1822603, 122.9737283
756.6217761, 126.8865288
757.0612919, 128.0044718
757.5008076, 128.0044718
757.9403234, 129.1224148
758.3798392, 130.2403577
758.819355, 130.7993292
759.2588707, 130.7993292
759.6983865, 130.7993292
760.1379023, 130.7993292
760.5774181, 130.7993292
761.0169338, 130.7993292
761.4564496, 130.2403577
761.8959654, 129.6813862
762.3354812, 129.1224148
762.7749969, 128.5634433
763.2145127, 127.4455003
763.6540285, 126.3275573
764.0935443, 125.2096143
764.53306, 122.9737283
764.9725758, 120.1788709
765.4120916, 117.9429849
765.8516074, 117.3840134
766.2911231, 117.3840134
766.7306389, 121.8557854
767.1701547, 124.6506428
767.6096705, 124.6506428
768.0491862, 124.6506428
768.488702, 127.4455003
768.9282178, 129.6813862
769.3677336, 131.9172722
769.8072493, 133.5941867
770.2467651, 135.2711012
770.6862809, 135.2711012
771.1257967, 140.8608161
771.5653125, 140.8608161
772.0048282, 141.4197876
772.444344, 141.4197876
772.8838598, 141.9787591
773.3233756, 141.9787591
773.7628913, 141.9787591
774.2024071, 142.5377306
774.6419229, 143.0967021
775.0814387, 144.2146451
775.5209544, 145.332588
775.9604702, 145.332588
776.399986, 145.332588
776.8395018, 145.332588
777.2790175, 145.332588
777.7185333, 145.332588
778.1580491, 145.332588
778.5975649, 143.6556736
779.0370806, 154.2761319
779.4765964, 157.0709894
779.9161122, 157.0709894
780.355628, 158.7479039
780.7951437, 158.7479039
781.2346595, 159.3068753
781.6741753, 159.8658468
782.1136911, 159.8658468
782.5532068, 159.8658468
782.9927226, 159.8658468
783.4322384, 159.8658468
783.8717542, 161.5427613
784.3112699, 164.3376188
784.7507857, 171.0452767
785.1903015, 176.6349916
785.6298173, 176.6349916
786.069333, 178.3119061
786.5088488, 178.3119061
786.9483646, 178.3119061
787.3878804, 178.3119061
787.8273962, 178.3119061
788.2669119, 177.1939631
788.7064277, 174.9580771
789.1459435, 174.9580771
789.5854593, 174.9580771
790.024975, 174.9580771
790.4644908, 174.9580771
790.9040066, 172.7221912
791.3435224, 159.8658468
791.7830381, 159.3068753
792.2225539, 158.7479039
792.6620697, 158.1889324
793.1015855, 155.3940749
793.5411012, 155.3940749
793.980617, 155.3940749
794.4201328, 155.3940749
794.8596486, 152.5992174
795.2991643, 150.3633315
795.7386801, 148.1274455
796.1781959, 147.568474
796.6177117, 150.922303
797.0572274, 155.3940749
797.4967432, 158.1889324
797.936259, 160.9837898
798.3757748, 163.7786473
798.8152905, 163.7786473
799.2548063, 167.6914477
799.6943221, 169.3683622
800.1338379, 171.0452767
800.5733536, 173.2811627
801.0128694, 175.5170486
801.4523852, 177.7529346
801.891901, 179.9888206
802.3314167, 182.2247065
802.7709325, 186.137507
803.2104483, 186.137507
803.6499641, 186.137507
804.0894798, 186.137507
804.5289956, 186.137507
804.9685114, 185.019564
805.4080272, 185.019564
805.847543, 178.3119061
806.2870587, 168.8093907
806.7265745, 171.0452767
807.1660903, 173.2811627
807.6056061, 177.1939631
808.0451218, 180.5477921
808.4846376, 183.901621
808.9241534, 183.901621
809.3636692, 183.901621
809.8031849, 187.25545
810.2427007, 188.9323644
810.6822165, 188.9323644
811.1217323, 197.8759083
811.561248, 200.1117943
812.0007638, 202.9066518
812.4402796, 202.9066518
812.8797954, 206.2604807
813.3193111, 206.2604807
813.7588269, 206.8194522
814.1983427, 206.8194522
814.6378585, 207.3784237
815.0773742, 207.3784237
815.51689, 207.3784237
815.9564058, 207.3784237
816.3959216, 207.3784237
816.8354373, 206.2604807
817.2749531, 206.2604807
817.7144689, 202.9066518
818.1539847, 197.8759083
818.5935004, 190.0503074
819.0330162, 186.137507
819.472532, 181.1067636
819.9120478, 177.1939631
820.3515635, 173.8401342
820.7910793, 168.2504192
821.2305951, 169.9273337
821.6701109, 173.8401342
822.1096266, 173.8401342
822.5491424, 173.8401342
822.9886582, 173.8401342
823.428174, 173.8401342
823.8676898, 173.8401342
824.3072055, 173.2811627
824.7467213, 173.2811627
825.1862371, 173.2811627
825.6257529, 169.3683622
826.0652686, 160.9837898
826.5047844, 154.2761319
826.9443002, 147.568474
827.383816, 143.6556736
827.8233317, 137.5069871
828.2628475, 132.4762437
828.7023633, 131.9172722
829.1418791, 139.7428731
829.5813948, 144.2146451
830.0209106, 148.1274455
830.4604264, 150.922303
830.8999422, 150.922303
831.3394579, 156.5120179
831.7789737, 163.2196758
832.2184895, 164.3376188
832.6580053, 164.3376188
833.097521, 164.8965903
833.5370368, 164.8965903
833.9765526, 164.8965903
834.4160684, 164.8965903
834.8555841, 164.8965903
835.2950999, 164.8965903
835.7346157, 164.3376188
836.1741315, 163.7786473
836.6136472, 162.1017328
837.053163, 158.7479039
837.4926788, 154.2761319
837.9321946, 147.568474
838.3717103, 141.9787591
838.8112261, 141.9787591
839.2507419, 141.9787591
839.6902577, 141.9787591
840.1297735, 141.9787591
840.5692892, 141.9787591
841.008805, 141.9787591
841.4483208, 141.4197876
841.8878366, 141.4197876
842.3273523, 148.1274455
842.7668681, 150.3633315
843.2063839, 155.9530464
843.6458997, 158.7479039
844.0854154, 158.7479039
844.5249312, 158.7479039
844.964447, 158.7479039
845.4039628, 158.7479039
845.8434785, 158.7479039
846.2829943, 158.7479039
846.7225101, 158.7479039
847.1620259, 158.7479039
847.6015416, 158.1889324
848.0410574, 157.6299609
848.4805732, 157.6299609
848.920089, 158.7479039
849.3596047, 159.3068753
849.7991205, 159.3068753
850.2386363, 159.3068753
850.6781521, 159.3068753
851.1176678, 159.3068753
851.5571836, 159.3068753
851.9966994, 158.7479039
852.4362152, 158.1889324
852.8757309, 158.1889324
853.3152467, 153.7171604
853.7547625, 153.7171604
854.1942783, 142.5377306
854.633794, 138.6249301
855.0733098, 137.5069871
855.5128256, 92.78926775
855.9523414, 102.8507546
856.3918571, 108.4404695
856.8313729, 126.8865288
857.2708887, 126.8865288
857.7104045, 126.8865288
858.1499203, 126.8865288
858.589436, 128.0044718
859.0289518, 128.5634433
859.4684676, 129.1224148
859.9079834, 129.1224148
860.3474991, 129.1224148
860.7870149, 129.1224148
861.2265307, 144.7736165
861.6660465, 152.5992174
862.1055622, 153.7171604
862.545078, 153.7171604
862.9845938, 153.7171604
863.4241096, 153.7171604
863.8636253, 153.7171604
864.3031411, 152.5992174
864.7426569, 152.5992174
865.1821727, 152.5992174
865.6216884, 150.922303
866.0612042, 147.0095025
866.50072, 147.0095025
866.9402358, 140.8608161
867.3797515, 134.7121297
867.8192673, 132.4762437
868.2587831, 130.7993292
868.6982989, 129.6813862
869.1378146, 129.6813862
869.5773304, 129.6813862
870.0168462, 129.1224148
870.456362, 128.5634433
870.8958777, 128.0044718
871.3353935, 127.4455003
871.7749093, 126.8865288
872.2144251, 126.8865288
872.6539408, 128.5634433
873.0934566, 128.5634433
873.5329724, 130.2403577
873.9724882, 130.2403577
874.4120039, 130.2403577
874.8515197, 130.2403577
875.2910355, 130.2403577
875.7305513, 130.2403577
876.1700671, 130.2403577
876.6095828, 129.6813862
877.0490986, 128.5634433
877.4886144, 126.3275573
877.9281302, 126.3275573
878.3676459, 125.2096143
878.8071617, 123.5326998
879.2466775, 120.7378424
879.6861933, 116.2660704
880.125709, 110.6763555
880.5652248, 111.7942985
881.0047406, 112.35327
881.4442564, 114.0301845
881.8837721, 114.0301845
882.3232879, 114.0301845
882.7628037, 121.8557854
883.2023195, 126.3275573
883.6418352, 126.3275573
884.081351, 126.3275573
884.5208668, 129.1224148
884.9603826, 129.1224148
885.3998983, 129.6813862
885.8394141, 131.3583007
886.2789299, 132.4762437
886.7184457, 132.4762437
887.1579614, 132.4762437
887.5974772, 132.4762437
888.036993, 132.4762437
888.4765088, 132.4762437
888.9160245, 132.4762437
889.3555403, 131.3583007
889.7950561, 130.2403577
890.2345719, 135.2711012
890.6740876, 136.9480157
891.1136034, 136.9480157
891.5531192, 136.9480157
891.992635, 136.9480157
892.4321507, 136.9480157
892.8716665, 136.3890442
893.3111823, 136.3890442
893.7506981, 135.8300727
894.1902139, 135.2711012
894.6297296, 134.1531582
895.0692454, 131.3583007
895.5087612, 126.8865288
895.948277, 124.0916713
896.3877927, 122.4147568
896.8273085, 122.4147568
897.2668243, 122.9737283
897.7063401, 124.0916713
898.1458558, 124.0916713
898.5853716, 125.7685858
899.0248874, 125.7685858
899.4644032, 125.7685858
899.9039189, 125.7685858
900.3434347, 125.7685858
900.7829505, 124.0916713
901.2224663, 121.2968139
901.661982, 119.0609279
902.1014978, 119.0609279
902.5410136, 119.0609279
902.9805294, 116.8250419
903.4200451, 115.7070989
903.8595609, 113.471213
904.2990767, 111.235327
904.7385925, 114.0301845
905.1781082, 120.7378424
905.617624, 120.7378424
906.0571398, 120.7378424
906.4966556, 120.7378424
906.9361713, 121.2968139
907.3756871, 121.2968139
907.8152029, 121.2968139
908.2547187, 121.2968139
908.6942344, 121.2968139
909.1337502, 119.6198994
909.573266, 119.6198994
910.0127818, 119.6198994
910.4522976, 119.6198994
910.8918133, 119.6198994
911.3313291, 119.6198994
911.7708449, 117.3840134
912.2103607, 120.1788709
912.6498764, 122.9737283
913.0893922, 122.9737283
913.528908, 125.2096143
913.9684238, 125.2096143
914.4079395, 125.2096143
914.8474553, 125.2096143
915.2869711, 125.2096143
915.7264869, 123.5326998
916.1660026, 122.4147568
916.6055184, 121.8557854
917.0450342, 121.2968139
917.48455, 121.2968139
917.9240657, 110.6763555
918.3635815, 110.6763555
918.8030973, 110.117384
919.2426131, 110.117384
919.6821288, 110.117384
920.1216446, 110.117384
920.5611604, 110.117384
921.0006762, 110.117384
921.4401919, 109.5584125
921.8797077, 109.5584125
922.3192235, 110.117384
922.7587393, 110.6763555
923.198255, 112.9122415
923.6377708, 126.8865288
924.0772866, 126.8865288
924.5168024, 128.0044718
924.9563181, 128.5634433
925.3958339, 128.5634433
925.8353497, 128.5634433
926.2748655, 128.5634433
926.7143812, 128.5634433
927.153897, 128.5634433
927.5934128, 128.0044718
928.0329286, 128.0044718
928.4724444, 123.5326998
928.9119601, 123.5326998
929.3514759, 123.5326998
929.7909917, 123.5326998
930.2305075, 122.9737283
930.6700232, 121.8557854
931.109539, 120.7378424
931.5490548, 119.6198994
931.9885706, 119.0609279
932.4280863, 116.2660704
932.8676021, 116.2660704
933.3071179, 114.0301845
933.7466337, 110.6763555
934.1861494, 108.999441
934.6256652, 109.5584125
935.065181, 109.5584125
935.5046968, 110.117384
935.9442125, 110.6763555
936.3837283, 111.235327
936.8232441, 111.7942985
937.2627599, 114.589156
937.7022756, 120.1788709
938.1417914, 120.7378424
938.5813072, 121.2968139
939.020823, 121.2968139
939.4603387, 121.2968139
939.8998545, 121.2968139
940.3393703, 121.2968139
940.7788861, 121.2968139
941.2184018, 121.2968139
941.6579176, 121.2968139
942.0974334, 121.2968139
942.5369492, 103.4097261
942.9764649, 93.90721073
943.4159807, 90.55338178
943.8554965, 90.55338178
944.2950123, 88.8764673
944.734528, 88.8764673
945.1740438, 86.64058133
945.6135596, 83.84572387
946.0530754, 80.49189491
946.4925912, 78.81498044
946.9321069, 84.96366685
947.3716227, 89.99441029
947.8111385, 91.11235327
948.2506543, 91.11235327
948.69017, 91.11235327
949.1296858, 92.23029625
949.5692016, 92.23029625
950.0087174, 92.78926775
950.4482331, 93.34823924
950.8877489, 93.34823924
951.3272647, 93.90721073
951.7667805, 93.90721073
952.2062962, 93.90721073
952.645812, 93.90721073
953.0853278, 93.90721073
953.5248436, 93.34823924
953.9643593, 93.34823924
954.4038751, 93.34823924
954.8433909, 92.78926775
955.2829067, 92.78926775
955.7224224, 90.55338178
956.1619382, 91.11235327
956.601454, 98.93795416
957.0409698, 104.5276691
957.4804855, 106.2045836
957.9200013, 107.3225266
958.3595171, 108.4404695
958.7990329, 109.5584125
959.2385486, 110.6763555
959.6780644, 125.2096143
960.1175802, 131.3583007
960.557096, 137.5069871
960.9966117, 140.8608161
961.4361275, 145.332588
961.8756433, 146.450531
962.3151591, 146.450531
962.7546749, 146.450531
963.1941906, 146.450531
963.6337064, 146.450531
964.0732222, 146.450531
964.512738, 146.450531
964.9522537, 142.5377306
965.3917695, 122.4147568
965.8312853, 117.3840134
966.2708011, 110.6763555
966.7103168, 110.117384
967.1498326, 110.117384
967.5893484, 110.117384
968.0288642, 110.6763555
968.4683799, 115.7070989
968.9078957, 126.3275573
969.3474115, 130.7993292
969.7869273, 132.4762437
970.226443, 132.4762437
970.6659588, 132.4762437
971.1054746, 132.4762437
971.5449904, 132.4762437
971.9845061, 132.4762437
972.4240219, 131.9172722
972.8635377, 131.3583007
973.3030535, 129.6813862
973.7425692, 98.37898267
974.182085, 98.37898267
974.6216008, 97.82001118
975.0611166, 97.82001118
975.5006323, 97.26103969
975.9401481, 96.70206819
976.3796639, 91.67132476
976.8191797, 91.67132476
977.2586954, 91.67132476
977.6982112, 91.67132476
978.137727, 91.67132476
978.5772428, 94.46618222
979.0167585, 96.1430967
979.4562743, 97.26103969
979.8957901, 98.37898267
980.3353059, 98.37898267
980.7748217, 99.49692566
981.2143374, 99.49692566
981.6538532, 99.49692566
982.093369, 99.49692566
982.5328848, 99.49692566
982.9724005, 98.93795416
983.4119163, 100.0558971
983.8514321, 100.6148686
984.2909479, 100.6148686
984.7304636, 100.6148686
985.1699794, 100.6148686
985.6094952, 100.6148686
986.049011, 101.1738401
986.4885267, 101.7328116
986.9280425, 101.7328116
987.3675583, 101.7328116
987.8070741, 101.7328116
988.2465898, 101.7328116
988.6861056, 101.1738401
989.1256214, 101.1738401
989.5651372, 100.0558971
990.0046529, 99.49692566
990.4441687, 98.93795416
990.8836845, 97.82001118
991.3232003, 97.26103969
991.762716, 95.58412521
992.2022318, 94.46618222
992.6417476, 92.78926775
993.0812634, 90.55338178
993.5207791, 88.8764673
993.9602949, 88.8764673
994.3998107, 88.8764673
994.8393265, 88.8764673
995.2788422, 89.99441029
995.718358, 90.55338178
996.1578738, 91.67132476
996.5973896, 92.78926775
997.0369053, 92.78926775
997.4764211, 96.70206819
997.9159369, 100.6148686
998.3554527, 100.6148686
998.7949685, 100.6148686
999.2344842, 100.6148686
999.674, 100.6148686
1000.113516, 103.4097261
1000.553032, 115.7070989
1000.992547, 116.8250419
1001.432063, 132.4762437
1001.871579, 133.5941867
1002.311095, 133.5941867
1002.75061, 133.5941867
1003.190126, 134.1531582
1003.629642, 134.7121297
1004.069158, 134.7121297
1004.508674, 134.7121297
1004.948189, 134.7121297
1005.387705, 134.7121297
1005.827221, 133.5941867
1006.266737, 123.5326998
1006.706252, 123.5326998
1007.145768, 120.1788709
1007.585284, 96.70206819
1008.0248, 99.49692566
1008.464316, 100.6148686
1008.903831, 101.7328116
1009.343347, 101.7328116
1009.782863, 101.7328116
1010.222379, 103.4097261
1010.661894, 105.0866406
1011.10141, 105.0866406
1011.540926, 107.3225266
1011.980442, 107.3225266
1012.419957, 107.3225266
1012.859473, 107.3225266
1013.298989, 107.881498
1013.738505, 107.881498
1014.178021, 107.881498
1014.617536, 107.881498
1015.057052, 107.881498
1015.496568, 107.881498
1015.936084, 107.3225266
1016.375599, 106.7635551
1016.815115, 105.0866406
1017.254631, 101.1738401
1017.694147, 93.34823924
1018.133663, 93.34823924
1018.573178, 93.34823924
1019.012694, 95.58412521
1019.45221, 101.7328116
1019.891726, 106.2045836
1020.331241, 109.5584125
1020.770757, 109.5584125
1021.210273, 110.117384
1021.649789, 110.117384
1022.089305, 110.117384
1022.52882, 110.117384
1022.968336, 110.117384
1023.407852, 110.117384
1023.847368, 109.5584125
1024.286883, 109.5584125
1024.726399, 108.4404695
1025.165915, 107.881498
1025.605431, 107.881498
1026.044947, 107.881498
1026.484462, 107.881498
1026.923978, 107.881498
1027.363494, 107.881498
1027.80301, 107.881498
1028.242525, 107.881498
1028.682041, 107.881498
1029.121557, 107.881498
1029.561073, 107.881498
1030.000589, 107.881498
1030.440104, 107.881498
1030.87962, 107.881498
1031.319136, 107.3225266
1031.758652, 107.3225266
1032.198167, 107.3225266
1032.637683, 106.2045836
1033.077199, 102.2917831
1033.516715, 95.58412521
1033.956231, 88.31749581
1034.395746, 76.02012297
1034.835262, 69.87143656
1035.274778, 74.3432085
1035.714294, 78.25600894
1036.153809, 82.16880939
1036.593325, 86.64058133
1037.032841, 97.82001118
1037.472357, 103.4097261
1037.911872, 103.4097261
1038.351388, 103.4097261
1038.790904, 114.0301845
1039.23042, 116.2660704
1039.669936, 120.1788709
1040.109451, 121.2968139
1040.548967, 122.9737283
1040.988483, 122.9737283
1041.427999, 122.9737283
1041.867514, 122.9737283
1042.30703, 122.9737283
1042.746546, 123.5326998
1043.186062, 126.8865288
1043.625578, 127.4455003
1044.065093, 127.4455003
1044.504609, 127.4455003
1044.944125, 127.4455003
1045.383641, 127.4455003
1045.823156, 124.6506428
1046.262672, 119.0609279
1046.702188, 118.5019564
1047.141704, 118.5019564
1047.58122, 118.5019564
1048.020735, 118.5019564
1048.460251, 116.2660704
1048.899767, 113.471213
1049.339283, 111.235327
1049.778798, 108.999441
1050.218314, 106.7635551
1050.65783, 105.0866406
1051.097346, 104.5276691
1051.536862, 105.6456121
1051.976377, 105.6456121
1052.415893, 105.6456121
1052.855409, 105.6456121
1053.294925, 105.6456121
1053.73444, 105.6456121
1054.173956, 105.6456121
1054.613472, 108.999441
1055.052988, 126.3275573
1055.492504, 126.3275573
1055.932019, 128.0044718
1056.371535, 128.0044718
1056.811051, 128.0044718
1057.250567, 128.0044718
1057.690082, 128.0044718
1058.129598, 128.0044718
1058.569114, 128.0044718
1059.00863, 128.0044718
1059.448145, 126.3275573
1059.887661, 117.9429849
1060.327177, 117.9429849
1060.766693, 117.9429849
1061.206209, 108.999441
1061.645724, 108.4404695
1062.08524, 107.881498
1062.524756, 105.0866406
1062.964272, 105.0866406
1063.403787, 102.8507546
1063.843303, 100.6148686
1064.282819, 90.55338178
1064.722335, 90.55338178
1065.161851, 83.84572387
1065.601366, 83.28675238
1066.040882, 83.28675238
1066.480398, 83.28675238
1066.919914, 92.23029625
1067.359429, 106.7635551
1067.798945, 112.35327
1068.238461, 112.35327
1068.677977, 116.2660704
1069.117493, 116.2660704
1069.557008, 117.3840134
1069.996524, 117.3840134
1070.43604, 117.3840134
1070.875556, 117.9429849
1071.315071, 118.5019564
1071.754587, 119.0609279
1072.194103, 120.1788709
1072.633619, 120.7378424
1073.073135, 121.2968139
1073.51265, 121.2968139
1073.952166, 121.2968139
1074.391682, 121.2968139
1074.831198, 121.2968139
1075.270713, 120.7378424
1075.710229, 119.0609279
1076.149745, 117.9429849
1076.589261, 116.8250419
1077.028777, 115.7070989
1077.468292, 114.589156
1077.907808, 112.9122415
1078.347324, 111.7942985
1078.78684, 108.999441
1079.226355, 94.46618222
1079.665871, 88.8764673
1080.105387, 86.64058133
1080.544903, 84.96366685
1080.984418, 83.28675238
1081.423934, 82.72778088
1081.86345, 81.6098379
1082.302966, 80.49189491
1082.742482, 78.81498044
1083.181997, 78.25600894
1083.621513, 77.13806596
1084.061029, 76.02012297
1084.500545, 74.90217999
1084.94006, 73.784237
1085.379576, 73.22526551
1085.819092, 73.784237
1086.258608, 74.90217999
1086.698124, 76.57909447
1087.137639, 78.25600894
1087.577155, 79.37395193
1088.016671, 79.93292342
1088.456187, 81.6098379
1088.895702, 83.84572387
1089.335218, 86.64058133
1089.774734, 89.43543879
1090.21425, 94.46618222
1090.653766, 98.93795416
1091.093281, 103.4097261
1091.532797, 111.235327
1091.972313, 118.5019564
1092.411829, 120.1788709
1092.851344, 120.1788709
1093.29086, 120.1788709
1093.730376, 120.7378424
1094.169892, 120.7378424
1094.609408, 120.7378424
1095.048923, 120.7378424
1095.488439, 120.7378424
1095.927955, 117.3840134
1096.367471, 117.3840134
1096.806986, 109.5584125
1097.246502, 109.5584125
1097.686018, 109.5584125
1098.125534, 109.5584125
1098.56505, 109.5584125
1099.004565, 109.5584125
1099.444081, 107.881498
1099.883597, 107.881498
1100.323113, 106.7635551
1100.762628, 105.6456121
1101.202144, 103.9686976
1101.64166, 102.2917831
1102.081176, 97.82001118
1102.520691, 97.82001118
1102.960207, 97.82001118
1103.399723, 96.1430967
1103.839239, 94.46618222
1104.278755, 92.23029625
1104.71827, 90.55338178
1105.157786, 88.8764673
1105.597302, 87.19955282
1106.036818, 85.52263835
1106.476333, 82.16880939
1106.915849, 82.16880939
1107.355365, 83.28675238
1107.794881, 96.70206819
1108.234397, 101.7328116
1108.673912, 114.589156
1109.113428, 116.2660704
1109.552944, 125.2096143
1109.99246, 126.8865288
1110.431975, 126.8865288
1110.871491, 126.8865288
1111.311007, 127.4455003
1111.750523, 127.4455003
1112.190039, 127.4455003
1112.629554, 127.4455003
1113.06907, 127.4455003
1113.508586, 120.1788709
1113.948102, 120.1788709
1114.387617, 120.1788709
1114.827133, 120.7378424
1115.266649, 120.7378424
1115.706165, 120.7378424
1116.145681, 120.7378424
1116.585196, 120.7378424
1117.024712, 120.1788709
1117.464228, 118.5019564
1117.903744, 115.1481274
1118.343259, 110.6763555
1118.782775, 108.4404695
1119.222291, 108.4404695
1119.661807, 108.4404695
1120.101323, 105.6456121
1120.540838, 79.93292342
1120.980354, 79.93292342
1121.41987, 87.19955282
1121.859386, 89.43543879
1122.298901, 91.11235327
1122.738417, 91.11235327
1123.177933, 91.11235327
1123.617449, 91.11235327
1124.056965, 91.11235327
1124.49648, 91.11235327
1124.935996, 90.55338178
1125.375512, 97.26103969
1125.815028, 102.2917831
1126.254543, 102.2917831
1126.694059, 102.2917831
1127.133575, 103.4097261
1127.573091, 103.4097261
1128.012606, 103.9686976
1128.452122, 103.9686976
1128.891638, 103.9686976
1129.331154, 103.9686976
1129.77067, 103.9686976
1130.210185, 102.8507546
1130.649701, 90.55338178
1131.089217, 85.52263835
1131.528733, 87.75852432
1131.968248, 88.8764673
1132.407764, 90.55338178
1132.84728, 92.23029625
1133.286796, 95.02515372
1133.726312, 100.6148686
1134.165827, 100.6148686
1134.605343, 104.5276691
1135.044859, 105.0866406
1135.484375, 105.6456121
1135.92389, 105.6456121
1136.363406, 105.6456121
1136.802922, 105.6456121
1137.242438, 105.6456121
1137.681954, 105.0866406
1138.121469, 103.9686976
1138.560985, 101.1738401
1139.000501, 94.46618222
1139.440017, 94.46618222
1139.879532, 94.46618222
1140.319048, 86.64058133
1140.758564, 87.19955282
1141.19808, 87.75852432
1141.637596, 88.31749581
1142.077111, 88.31749581
1142.516627, 88.8764673
1142.956143, 92.78926775
1143.395659, 94.46618222
1143.835174, 95.58412521
1144.27469, 96.70206819
1144.714206, 98.37898267
1145.153722, 99.49692566
1145.593238, 114.0301845
1146.032753, 114.589156
1146.472269, 114.589156
1146.911785, 114.589156
1147.351301, 114.589156
1147.790816, 114.589156
1148.230332, 115.1481274
1148.669848, 115.1481274
1149.109364, 115.1481274
1149.548879, 115.1481274
1149.988395, 115.1481274
