##NAMES=Hibbingite
##MID=0030004
##IDEAL CHEMISTRY=Fe_2_O_3_H_3_Cl
##LOCALITY=x
##OWNER=PAPER_Kodera2022
##SOURCE=x
##DESCRIPTION=x
##STATUS=clearly identified
##URL=x
##MEASURED CHEMISTRY=Fe_2_O_3_H_3_Cl
3500.002536, 39.87490227
3500.065181, 39.87490227
3500.127825, 39.87490227
3500.19047, 39.87490227
3500.253115, 39.87490227
3500.31576, 39.87490227
3500.378405, 39.87490227
3500.44105, 39.87490227
3500.503695, 39.87490227
3500.56634, 39.87490227
3500.628984, 39.87490227
3500.691629, 39.87490227
3500.754274, 39.87490227
3500.816919, 39.87490227
3500.879564, 39.87490227
3500.942209, 39.87490227
3501.004854, 39.87490227
3501.067498, 39.87490227
3501.130143, 39.87490227
3501.192788, 39.87490227
3501.255433, 39.87490227
3501.318078, 39.87490227
3501.380723, 39.87490227
3501.443368, 39.87490227
3501.506013, 39.87490227
3501.568657, 39.87490227
3501.631302, 39.87490227
3501.693947, 39.87490227
3501.756592, 39.87490227
3501.819237, 39.87490227
3501.881882, 39.87490227
3501.944527, 39.87490227
3502.007172, 39.87490227
3502.069816, 39.87490227
3502.132461, 39.87490227
3502.195106, 39.87490227
3502.257751, 39.87490227
3502.320396, 39.87490227
3502.383041, 39.87490227
3502.445686, 39.87490227
3502.508331, 39.87490227
3502.570975, 39.87490227
3502.63362, 39.87490227
3502.696265, 39.87490227
3502.75891, 39.87490227
3502.821555, 39.87490227
3502.8842, 39.87490227
3502.946845, 39.87490227
3503.009489, 39.87490227
3503.072134, 39.87490227
3503.134779, 39.87490227
3503.197424, 39.87490227
3503.260069, 39.87490227
3503.322714, 39.87490227
3503.385359, 39.87490227
3503.448004, 39.87490227
3503.510648, 39.87490227
3503.573293, 39.87490227
3503.635938, 39.87490227
3503.698583, 39.87490227
3503.761228, 39.87490227
3503.823873, 39.87490227
3503.886518, 39.87490227
3503.949163, 39.87490227
3504.011807, 39.87490227
3504.074452, 39.87490227
3504.137097, 39.87490227
3504.199742, 39.87490227
3504.262387, 39.87490227
3504.325032, 39.87490227
3504.387677, 39.87490227
3504.450322, 39.87490227
3504.512966, 39.87490227
3504.575611, 39.87490227
3504.638256, 39.87490227
3504.700901, 39.87490227
3504.763546, 39.87490227
3504.826191, 39.87490227
3504.888836, 39.87490227
3504.95148, 39.87490227
3505.014125, 39.87490227
3505.07677, 39.87490227
3505.139415, 39.87490227
3505.20206, 40.6567631
3505.264705, 40.6567631
3505.32735, 40.6567631
3505.389995, 40.6567631
3505.452639, 40.6567631
3505.515284, 40.6567631
3505.577929, 40.6567631
3505.640574, 40.6567631
3505.703219, 40.6567631
3505.765864, 40.6567631
3505.828509, 40.6567631
3505.891154, 40.6567631
3505.953798, 40.6567631
3506.016443, 40.6567631
3506.079088, 40.6567631
3506.141733, 40.6567631
3506.204378, 40.6567631
3506.267023, 41.43862392
3506.329668, 41.43862392
3506.392312, 41.43862392
3506.454957, 41.43862392
3506.517602, 41.43862392
3506.580247, 41.43862392
3506.642892, 41.43862392
3506.705537, 41.43862392
3506.768182, 41.43862392
3506.830827, 42.22048475
3506.893471, 42.22048475
3506.956116, 42.22048475
3507.018761, 42.22048475
3507.081406, 42.22048475
3507.144051, 42.22048475
3507.206696, 42.22048475
3507.269341, 42.22048475
3507.331986, 42.22048475
3507.39463, 42.22048475
3507.457275, 41.43862392
3507.51992, 34.40187647
3507.582565, 41.43862392
3507.64521, 41.43862392
3507.707855, 41.43862392
3507.7705, 41.43862392
3507.833145, 41.43862392
3507.895789, 41.43862392
3507.958434, 41.43862392
3508.021079, 41.43862392
3508.083724, 41.43862392
3508.146369, 41.43862392
3508.209014, 41.43862392
3508.271659, 41.43862392
3508.334303, 41.43862392
3508.396948, 41.43862392
3508.459593, 41.43862392
3508.522238, 41.43862392
3508.584883, 41.43862392
3508.647528, 41.43862392
3508.710173, 41.43862392
3508.772818, 41.43862392
3508.835462, 41.43862392
3508.898107, 41.43862392
3508.960752, 40.6567631
3509.023397, 40.6567631
3509.086042, 40.6567631
3509.148687, 40.6567631
3509.211332, 40.6567631
3509.273977, 40.6567631
3509.336621, 40.6567631
3509.399266, 40.6567631
3509.461911, 40.6567631
3509.524556, 40.6567631
3509.587201, 40.6567631
3509.649846, 40.6567631
3509.712491, 40.6567631
3509.775135, 40.6567631
3509.83778, 40.6567631
3509.900425, 40.6567631
3509.96307, 40.6567631
3510.025715, 41.43862392
3510.08836, 41.43862392
3510.151005, 41.43862392
3510.21365, 41.43862392
3510.276294, 41.43862392
3510.338939, 41.43862392
3510.401584, 41.43862392
3510.464229, 41.43862392
3510.526874, 41.43862392
3510.589519, 43.00234558
3510.652164, 43.00234558
3510.714809, 43.00234558
3510.777453, 43.00234558
3510.840098, 43.78420641
3510.902743, 43.78420641
3510.965388, 43.78420641
3511.028033, 43.78420641
3511.090678, 43.78420641
3511.153323, 41.43862392
3511.215968, 44.56606724
3511.278612, 44.56606724
3511.341257, 44.56606724
3511.403902, 44.56606724
3511.466547, 44.56606724
3511.529192, 43.00234558
3511.591837, 45.34792807
3511.654482, 45.34792807
3511.717126, 45.34792807
3511.779771, 45.34792807
3511.842416, 45.34792807
3511.905061, 43.78420641
3511.967706, 43.78420641
3512.030351, 46.1297889
3512.092996, 46.1297889
3512.155641, 46.1297889
3512.218285, 46.1297889
3512.28093, 46.1297889
3512.343575, 43.78420641
3512.40622, 43.78420641
3512.468865, 44.56606724
3512.53151, 44.56606724
3512.594155, 46.91164973
3512.6568, 46.91164973
3512.719444, 46.91164973
3512.782089, 46.91164973
3512.844734, 46.91164973
3512.907379, 46.91164973
3512.970024, 46.91164973
3513.032669, 46.91164973
3513.095314, 46.91164973
3513.157958, 46.1297889
3513.220603, 46.1297889
3513.283248, 46.1297889
3513.345893, 46.1297889
3513.408538, 46.1297889
3513.471183, 46.1297889
3513.533828, 46.1297889
3513.596473, 46.1297889
3513.659117, 46.1297889
3513.721762, 46.1297889
3513.784407, 46.1297889
3513.847052, 46.1297889
3513.909697, 46.1297889
3513.972342, 46.1297889
3514.034987, 46.1297889
3514.097632, 46.1297889
3514.160276, 43.00234558
3514.222921, 43.00234558
3514.285566, 43.00234558
3514.348211, 41.43862392
3514.410856, 41.43862392
3514.473501, 41.43862392
3514.536146, 41.43862392
3514.598791, 41.43862392
3514.661435, 41.43862392
3514.72408, 41.43862392
3514.786725, 46.1297889
3514.84937, 46.1297889
3514.912015, 46.1297889
3514.97466, 46.1297889
3515.037305, 46.1297889
3515.099949, 46.1297889
3515.162594, 46.1297889
3515.225239, 46.1297889
3515.287884, 46.1297889
3515.350529, 46.1297889
3515.413174, 46.91164973
3515.475819, 46.91164973
3515.538464, 46.91164973
3515.601108, 46.91164973
3515.663753, 46.91164973
3515.726398, 46.91164973
3515.789043, 46.91164973
3515.851688, 46.91164973
3515.914333, 46.91164973
3515.976978, 46.91164973
3516.039623, 47.69351056
3516.102267, 47.69351056
3516.164912, 47.69351056
3516.227557, 48.47537138
3516.290202, 48.47537138
3516.352847, 48.47537138
3516.415492, 48.47537138
3516.478137, 48.47537138
3516.540782, 48.47537138
3516.603426, 48.47537138
3516.666071, 48.47537138
3516.728716, 48.47537138
3516.791361, 48.47537138
3516.854006, 47.69351056
3516.916651, 47.69351056
3516.979296, 47.69351056
3517.04194, 47.69351056
3517.104585, 47.69351056
3517.16723, 47.69351056
3517.229875, 47.69351056
3517.29252, 47.69351056
3517.355165, 47.69351056
3517.41781, 47.69351056
3517.480455, 48.47537138
3517.543099, 50.03909304
3517.605744, 50.82095387
3517.668389, 51.6028147
3517.731034, 52.38467553
3517.793679, 52.38467553
3517.856324, 52.38467553
3517.918969, 52.38467553
3517.981614, 52.38467553
3518.044258, 52.38467553
3518.106903, 52.38467553
3518.169548, 51.6028147
3518.232193, 51.6028147
3518.294838, 51.6028147
3518.357483, 51.6028147
3518.420128, 51.6028147
3518.482772, 51.6028147
3518.545417, 50.82095387
3518.608062, 50.82095387
3518.670707, 50.82095387
3518.733352, 50.82095387
3518.795997, 50.82095387
3518.858642, 50.82095387
3518.921287, 50.82095387
3518.983931, 50.03909304
3519.046576, 49.25723221
3519.109221, 48.47537138
3519.171866, 48.47537138
3519.234511, 47.69351056
3519.297156, 47.69351056
3519.359801, 48.47537138
3519.422446, 48.47537138
3519.48509, 48.47537138
3519.547735, 48.47537138
3519.61038, 48.47537138
3519.673025, 48.47537138
3519.73567, 48.47537138
3519.798315, 48.47537138
3519.86096, 48.47537138
3519.923605, 48.47537138
3519.986249, 46.91164973
3520.048894, 48.47537138
3520.111539, 48.47537138
3520.174184, 48.47537138
3520.236829, 48.47537138
3520.299474, 48.47537138
3520.362119, 48.47537138
3520.424763, 50.82095387
3520.487408, 52.38467553
3520.550053, 52.38467553
3520.612698, 52.38467553
3520.675343, 52.38467553
3520.737988, 52.38467553
3520.800633, 52.38467553
3520.863278, 50.03909304
3520.925922, 50.03909304
3520.988567, 50.03909304
3521.051212, 51.6028147
3521.113857, 51.6028147
3521.176502, 51.6028147
3521.239147, 51.6028147
3521.301792, 51.6028147
3521.364437, 51.6028147
3521.427081, 51.6028147
3521.489726, 51.6028147
3521.552371, 51.6028147
3521.615016, 51.6028147
3521.677661, 51.6028147
3521.740306, 51.6028147
3521.802951, 51.6028147
3521.865595, 51.6028147
3521.92824, 51.6028147
3521.990885, 51.6028147
3522.05353, 51.6028147
3522.116175, 51.6028147
3522.17882, 50.82095387
3522.241465, 50.82095387
3522.30411, 50.82095387
3522.366754, 50.82095387
3522.429399, 50.03909304
3522.492044, 49.25723221
3522.554689, 49.25723221
3522.617334, 48.47537138
3522.679979, 48.47537138
3522.742624, 49.25723221
3522.805269, 49.25723221
3522.867913, 51.6028147
3522.930558, 52.38467553
3522.993203, 52.38467553
3523.055848, 52.38467553
3523.118493, 52.38467553
3523.181138, 53.16653636
3523.243783, 53.16653636
3523.306428, 53.16653636
3523.369072, 53.16653636
3523.431717, 53.94839719
3523.494362, 53.94839719
3523.557007, 53.94839719
3523.619652, 53.94839719
3523.682297, 53.94839719
3523.744942, 53.94839719
3523.807586, 52.38467553
3523.870231, 53.94839719
3523.932876, 53.94839719
3523.995521, 53.94839719
3524.058166, 53.94839719
3524.120811, 53.94839719
3524.183456, 53.16653636
3524.246101, 53.16653636
3524.308745, 53.16653636
3524.37139, 53.16653636
3524.434035, 52.38467553
3524.49668, 52.38467553
3524.559325, 52.38467553
3524.62197, 46.1297889
3524.684615, 46.1297889
3524.74726, 51.6028147
3524.809904, 52.38467553
3524.872549, 52.38467553
3524.935194, 52.38467553
3524.997839, 53.16653636
3525.060484, 53.16653636
3525.123129, 53.16653636
3525.185774, 53.16653636
3525.248418, 53.94839719
3525.311063, 53.94839719
3525.373708, 53.94839719
3525.436353, 53.94839719
3525.498998, 53.94839719
3525.561643, 53.94839719
3525.624288, 53.16653636
3525.686933, 53.94839719
3525.749577, 53.94839719
3525.812222, 55.51211884
3525.874867, 55.51211884
3525.937512, 55.51211884
3526.000157, 55.51211884
3526.062802, 55.51211884
3526.125447, 55.51211884
3526.188092, 56.29397967
3526.250736, 56.29397967
3526.313381, 56.29397967
3526.376026, 56.29397967
3526.438671, 56.29397967
3526.501316, 56.29397967
3526.563961, 56.29397967
3526.626606, 56.29397967
3526.689251, 56.29397967
3526.751895, 56.29397967
3526.81454, 56.29397967
3526.877185, 56.29397967
3526.93983, 56.29397967
3527.002475, 56.29397967
3527.06512, 56.29397967
3527.127765, 57.0758405
3527.190409, 57.0758405
3527.253054, 57.0758405
3527.315699, 57.0758405
3527.378344, 57.0758405
3527.440989, 57.0758405
3527.503634, 57.85770133
3527.566279, 57.85770133
3527.628924, 57.85770133
3527.691568, 57.85770133
3527.754213, 57.85770133
3527.816858, 57.85770133
3527.879503, 57.85770133
3527.942148, 58.63956216
3528.004793, 58.63956216
3528.067438, 58.63956216
3528.130083, 58.63956216
3528.192727, 58.63956216
3528.255372, 57.0758405
3528.318017, 59.42142299
3528.380662, 59.42142299
3528.443307, 59.42142299
3528.505952, 59.42142299
3528.568597, 59.42142299
3528.631241, 59.42142299
3528.693886, 59.42142299
3528.756531, 59.42142299
3528.819176, 58.63956216
3528.881821, 60.98514464
3528.944466, 60.98514464
3529.007111, 61.76700547
3529.069756, 61.76700547
3529.1324, 61.76700547
3529.195045, 61.76700547
3529.25769, 62.5488663
3529.320335, 62.5488663
3529.38298, 62.5488663
3529.445625, 62.5488663
3529.50827, 62.5488663
3529.570915, 62.5488663
3529.633559, 63.33072713
3529.696204, 63.33072713
3529.758849, 63.33072713
3529.821494, 63.33072713
3529.884139, 63.33072713
3529.946784, 63.33072713
3530.009429, 63.33072713
3530.072074, 64.11258796
3530.134718, 64.11258796
3530.197363, 64.11258796
3530.260008, 64.11258796
3530.322653, 64.11258796
3530.385298, 64.11258796
3530.447943, 64.11258796
3530.510588, 64.11258796
3530.573232, 64.11258796
3530.635877, 64.11258796
3530.698522, 64.11258796
3530.761167, 64.11258796
3530.823812, 64.11258796
3530.886457, 64.11258796
3530.949102, 61.76700547
3531.011747, 60.98514464
3531.074391, 60.98514464
3531.137036, 60.98514464
3531.199681, 60.98514464
3531.262326, 60.98514464
3531.324971, 60.98514464
3531.387616, 60.98514464
3531.450261, 64.11258796
3531.512906, 64.11258796
3531.57555, 64.11258796
3531.638195, 64.11258796
3531.70084, 64.11258796
3531.763485, 64.11258796
3531.82613, 64.11258796
3531.888775, 64.11258796
3531.95142, 64.11258796
3532.014065, 64.11258796
3532.076709, 64.89444879
3532.139354, 64.89444879
3532.201999, 64.89444879
3532.264644, 64.89444879
3532.327289, 64.89444879
3532.389934, 64.89444879
3532.452579, 65.67630962
3532.515223, 65.67630962
3532.577868, 65.67630962
3532.640513, 65.67630962
3532.703158, 66.45817045
3532.765803, 66.45817045
3532.828448, 66.45817045
3532.891093, 66.45817045
3532.953738, 67.24003127
3533.016382, 67.24003127
3533.079027, 67.24003127
3533.141672, 67.24003127
3533.204317, 68.0218921
3533.266962, 68.0218921
3533.329607, 68.0218921
3533.392252, 68.80375293
3533.454897, 68.80375293
3533.517541, 69.58561376
3533.580186, 69.58561376
3533.642831, 69.58561376
3533.705476, 69.58561376
3533.768121, 70.36747459
3533.830766, 70.36747459
3533.893411, 70.36747459
3533.956055, 71.14933542
3534.0187, 71.14933542
3534.081345, 71.14933542
3534.14399, 71.93119625
3534.206635, 71.93119625
3534.26928, 71.93119625
3534.331925, 72.71305708
3534.39457, 72.71305708
3534.457214, 72.71305708
3534.519859, 73.4949179
3534.582504, 73.4949179
3534.645149, 74.27677873
3534.707794, 74.27677873
3534.770439, 74.27677873
3534.833084, 75.05863956
3534.895729, 75.05863956
3534.958373, 75.05863956
3535.021018, 75.84050039
3535.083663, 75.84050039
3535.146308, 75.84050039
3535.208953, 76.62236122
3535.271598, 76.62236122
3535.334243, 76.62236122
3535.396888, 76.62236122
3535.459532, 76.62236122
3535.522177, 77.40422205
3535.584822, 77.40422205
3535.647467, 77.40422205
3535.710112, 77.40422205
3535.772757, 77.40422205
3535.835402, 77.40422205
3535.898046, 77.40422205
3535.960691, 77.40422205
3536.023336, 77.40422205
3536.085981, 77.40422205
3536.148626, 77.40422205
3536.211271, 77.40422205
3536.273916, 77.40422205
3536.336561, 77.40422205
3536.399205, 78.18608288
3536.46185, 78.18608288
3536.524495, 78.18608288
3536.58714, 78.18608288
3536.649785, 78.96794371
3536.71243, 78.96794371
3536.775075, 78.96794371
3536.83772, 79.74980453
3536.900364, 79.74980453
3536.963009, 79.74980453
3537.025654, 80.53166536
3537.088299, 80.53166536
3537.150944, 80.53166536
3537.213589, 80.53166536
3537.276234, 80.53166536
3537.338878, 81.31352619
3537.401523, 81.31352619
3537.464168, 81.31352619
3537.526813, 82.09538702
3537.589458, 82.09538702
3537.652103, 82.87724785
3537.714748, 82.87724785
3537.777393, 83.65910868
3537.840037, 83.65910868
3537.902682, 84.44096951
3537.965327, 84.44096951
3538.027972, 85.22283034
3538.090617, 85.22283034
3538.153262, 89.13213448
3538.215907, 89.13213448
3538.278552, 89.13213448
3538.341196, 89.13213448
3538.403841, 89.13213448
3538.466486, 88.35027365
3538.529131, 91.47771697
3538.591776, 91.47771697
3538.654421, 92.2595778
3538.717066, 92.2595778
3538.779711, 93.04143862
3538.842355, 93.04143862
3538.905, 93.82329945
3538.967645, 93.82329945
3539.03029, 94.60516028
3539.092935, 94.60516028
3539.15558, 94.60516028
3539.218225, 96.16888194
3539.280869, 96.16888194
3539.343514, 96.16888194
3539.406159, 97.7326036
3539.468804, 98.51446443
3539.531449, 99.29632525
3539.594094, 99.29632525
3539.656739, 99.29632525
3539.719384, 100.8600469
3539.782028, 101.6419077
3539.844673, 102.4237686
3539.907318, 103.2056294
3539.969963, 103.2056294
3540.032608, 103.2056294
3540.095253, 103.2056294
3540.157898, 103.2056294
3540.220543, 96.95074277
3540.283187, 97.7326036
3540.345832, 107.8967944
3540.408477, 108.6786552
3540.471122, 109.460516
3540.533767, 110.2423769
3540.596412, 111.0242377
3540.659057, 111.8060985
3540.721701, 112.5879593
3540.784346, 113.3698202
3540.846991, 113.3698202
3540.909636, 113.3698202
3540.972281, 113.3698202
3541.034926, 115.7154027
3541.097571, 116.4972635
3541.160216, 117.2791243
3541.22286, 118.0609851
3541.285505, 118.0609851
3541.34815, 118.0609851
3541.410795, 119.6247068
3541.47344, 120.4065676
3541.536085, 121.1884285
3541.59873, 121.9702893
3541.661375, 121.9702893
3541.724019, 121.9702893
3541.786664, 121.9702893
3541.849309, 121.9702893
3541.911954, 121.9702893
3541.974599, 125.8795934
3542.037244, 126.6614543
3542.099889, 127.4433151
3542.162534, 127.4433151
3542.225178, 127.4433151
3542.287823, 127.4433151
3542.350468, 127.4433151
3542.413113, 127.4433151
3542.475758, 131.3526192
3542.538403, 132.1344801
3542.601048, 132.1344801
3542.663692, 132.1344801
3542.726337, 132.1344801
3542.788982, 132.1344801
3542.851627, 132.1344801
3542.914272, 136.825645
3542.976917, 136.825645
3543.039562, 136.825645
3543.102207, 136.825645
3543.164851, 140.7349492
3543.227496, 141.51681
3543.290141, 141.51681
3543.352786, 141.51681
3543.415431, 141.51681
3543.478076, 142.2986708
3543.540721, 143.8623925
3543.603366, 144.6442533
3543.66601, 146.207975
3543.728655, 147.7716966
3543.7913, 149.3354183
3543.853945, 150.89914
3543.91659, 151.6810008
3543.979235, 152.4628616
3544.04188, 154.0265833
3544.104524, 154.8084441
3544.167169, 156.3721658
3544.229814, 157.1540266
3544.292459, 158.7177482
3544.355104, 159.4996091
3544.417749, 161.0633307
3544.480394, 161.8451916
3544.543039, 163.4089132
3544.605683, 164.190774
3544.668328, 165.7544957
3544.730973, 167.3182174
3544.793618, 168.881939
3544.856263, 170.4456607
3544.918908, 171.2275215
3544.981553, 172.7912432
3545.044198, 174.3549648
3545.106842, 175.9186865
3545.169487, 177.4824081
3545.232132, 179.8279906
3545.294777, 181.3917123
3545.357422, 183.7372948
3545.420067, 185.3010164
3545.482712, 186.8647381
3545.545357, 189.2103206
3545.608001, 190.7740422
3545.670646, 192.3377639
3545.733291, 193.9014855
3545.795936, 196.247068
3545.858581, 197.8107897
3545.921226, 199.3745113
3545.983871, 200.938233
3546.046515, 207.9749805
3546.10916, 209.5387021
3546.171805, 211.1024238
3546.23445, 212.6661454
3546.297095, 212.6661454
3546.35974, 216.5754496
3546.422385, 218.1391712
3546.48503, 219.7028929
3546.547674, 219.7028929
3546.610319, 223.612197
3546.672964, 225.1759187
3546.735609, 227.5215012
3546.798254, 229.0852228
3546.860899, 231.4308053
3546.923544, 233.7763878
3546.986189, 233.7763878
3547.048833, 237.6856919
3547.111478, 240.0312744
3547.174123, 242.3768569
3547.236768, 244.7224394
3547.299413, 246.2861611
3547.362058, 248.6317435
3547.424703, 250.977326
3547.487348, 250.977326
3547.549992, 254.8866302
3547.612637, 254.8866302
3547.675282, 254.8866302
3547.737927, 261.9233776
3547.800572, 265.050821
3547.863217, 265.050821
3547.925862, 265.050821
3547.988506, 272.0875684
3548.051151, 274.4331509
3548.113796, 274.4331509
3548.176441, 280.6880375
3548.239086, 283.03362
3548.301731, 283.03362
3548.364376, 289.2885066
3548.427021, 291.6340891
3548.489665, 294.7615324
3548.55231, 297.8889758
3548.614955, 300.2345582
3548.6776, 302.5801407
3548.740245, 305.7075841
3548.80289, 308.0531665
3548.865535, 308.0531665
3548.92818, 313.5261923
3548.990824, 315.8717748
3549.053469, 318.9992181
3549.116114, 322.1266615
3549.178759, 325.2541048
3549.241404, 328.3815481
3549.304049, 332.2908522
3549.366694, 335.4182955
3549.429338, 335.4182955
3549.491983, 343.2369038
3549.554628, 346.3643471
3549.617273, 346.3643471
3549.679918, 354.9648163
3549.742563, 358.0922596
3549.805208, 361.2197029
3549.867853, 365.129007
3549.930497, 365.129007
3549.993142, 365.129007
3550.055787, 374.511337
3550.118432, 377.6387803
3550.181077, 377.6387803
3550.243722, 383.8936669
3550.306367, 387.0211102
3550.369012, 387.0211102
3550.431656, 394.0578577
3550.494301, 397.185301
3550.556946, 397.185301
3550.619591, 402.6583268
3550.682236, 405.0039093
3550.744881, 407.3494918
3550.807526, 407.3494918
3550.870171, 407.3494918
3550.932815, 407.3494918
3550.99546, 417.5136826
3551.058105, 419.8592651
3551.12075, 419.8592651
3551.183395, 419.8592651
3551.24604, 419.8592651
3551.308685, 428.4597342
3551.371329, 428.4597342
3551.433974, 431.5871775
3551.496619, 433.1508991
3551.559264, 434.7146208
3551.621909, 436.2783425
3551.684554, 436.2783425
3551.747199, 438.6239249
3551.809844, 438.6239249
3551.872488, 438.6239249
3551.935133, 438.6239249
3551.997778, 443.3150899
3552.060423, 444.8788116
3552.123068, 445.6606724
3552.185713, 447.2243941
3552.248358, 447.2243941
3552.311003, 449.5699765
3552.373647, 450.3518374
3552.436292, 451.1336982
3552.498937, 451.915559
3552.561582, 452.6974199
3552.624227, 453.4792807
3552.686872, 454.2611415
3552.749517, 454.2611415
3552.812161, 454.2611415
3552.874806, 454.2611415
3552.937451, 454.2611415
3553.000096, 453.4792807
3553.062741, 458.9523065
3553.125386, 459.7341673
3553.188031, 459.7341673
3553.250676, 459.7341673
3553.31332, 461.297889
3553.375965, 461.297889
3553.43861, 462.0797498
3553.501255, 462.8616106
3553.5639, 462.8616106
3553.626545, 463.6434715
3553.68919, 463.6434715
3553.751835, 463.6434715
3553.814479, 463.6434715
3553.877124, 463.6434715
3553.939769, 462.8616106
3554.002414, 462.8616106
3554.065059, 462.8616106
3554.127704, 462.8616106
3554.190349, 462.8616106
3554.252994, 462.8616106
3554.315638, 462.8616106
3554.378283, 462.8616106
3554.440928, 462.8616106
3554.503573, 462.0797498
3554.566218, 457.3885848
3554.628863, 457.3885848
3554.691508, 447.2243941
3554.754152, 447.2243941
3554.816797, 449.5699765
3554.879442, 449.5699765
3554.942087, 449.5699765
3555.004732, 449.5699765
3555.067377, 449.5699765
3555.130022, 447.2243941
3555.192667, 447.2243941
3555.255311, 444.0969507
3555.317956, 444.0969507
3555.380601, 444.0969507
3555.443246, 443.3150899
3555.505891, 441.7513683
3555.568536, 441.7513683
3555.631181, 438.6239249
3555.693826, 438.6239249
3555.75647, 438.6239249
3555.819115, 438.6239249
3555.88176, 437.8420641
3555.944405, 437.0602033
3556.00705, 435.4964816
3556.069695, 435.4964816
3556.13234, 435.4964816
3556.194984, 434.7146208
3556.257629, 433.1508991
3556.320274, 433.1508991
3556.382919, 433.1508991
3556.445564, 432.3690383
3556.508209, 431.5871775
3556.570854, 427.6778733
3556.633499, 427.6778733
3556.696143, 427.6778733
3556.758788, 427.6778733
3556.821433, 427.6778733
3556.884078, 428.4597342
3556.946723, 429.241595
3557.009368, 430.0234558
3557.072013, 430.0234558
3557.134658, 430.0234558
3557.197302, 430.0234558
3557.259947, 430.0234558
3557.322592, 422.2048475
3557.385237, 434.7146208
3557.447882, 435.4964816
3557.510527, 435.4964816
3557.573172, 437.8420641
3557.635817, 439.4057858
3557.698461, 439.4057858
3557.761106, 439.4057858
3557.823751, 445.6606724
3557.886396, 448.0062549
3557.949041, 450.3518374
3558.011686, 450.3518374
3558.074331, 450.3518374
3558.136975, 455.8248632
3558.19962, 457.3885848
3558.262265, 457.3885848
3558.32491, 459.7341673
3558.387555, 460.5160281
3558.4502, 468.3346364
3558.512845, 472.2439406
3558.57549, 472.2439406
3558.638134, 472.2439406
3558.700779, 472.2439406
3558.763424, 476.1532447
3558.826069, 477.7169664
3558.888714, 489.4448788
3558.951359, 489.4448788
3559.014004, 494.9179046
3559.076649, 498.8272088
3559.139293, 502.7365129
3559.201938, 508.2095387
3559.264583, 515.2462862
3559.327228, 515.2462862
3559.389873, 515.2462862
3559.452518, 518.3737295
3559.515163, 523.0648944
3559.577808, 527.7560594
3559.640452, 531.6653636
3559.703097, 535.5746677
3559.765742, 548.084441
3559.828387, 553.5574668
3559.891032, 559.0304926
3559.953677, 563.7216575
3560.016322, 568.4128225
3560.078966, 572.3221267
3560.141611, 577.0132916
3560.204256, 584.0500391
3560.266901, 589.5230649
3560.329546, 595.7779515
3560.392191, 602.814699
3560.454836, 607.505864
3560.517481, 612.9788898
3560.580125, 620.797498
3560.64277, 625.488663
3560.705415, 630.9616888
3560.76806, 637.2165754
3560.830705, 643.4714621
3560.89335, 651.2900704
3560.955995, 660.6724003
3561.01864, 667.7091478
3561.081284, 675.5277561
3561.143929, 684.910086
3561.206574, 691.9468335
3561.269219, 700.5473026
3561.331864, 708.3659109
3561.394509, 715.4026583
3561.457154, 724.7849883
3561.519798, 734.1673182
3561.582443, 740.4222048
3561.645088, 746.6770915
3561.707733, 754.4956998
3561.770378, 760.7505864
3561.833023, 768.5691947
3561.895668, 784.2064113
3561.958313, 797.4980453
3562.020957, 811.5715403
3562.083602, 821.735731
3562.146247, 828.7724785
3562.208892, 836.5910868
3562.271537, 851.4464425
3562.334182, 869.4292416
3562.396827, 878.0297107
3562.459472, 887.4120407
3562.522116, 893.6669273
3562.584761, 900.7036747
3562.647406, 907.7404222
3562.710051, 913.213448
3562.772696, 917.904613
3562.835341, 924.9413604
3562.897986, 929.6325254
3562.960631, 934.3236904
3563.023275, 939.7967162
3563.08592, 943.7060203
3563.148565, 947.6153245
3563.21121, 952.3064894
3563.273855, 954.6520719
3563.3365, 958.5613761
3563.399145, 967.943706
3563.461789, 971.0711493
3563.524434, 971.0711493
3563.587079, 977.326036
3563.649724, 978.8897576
3563.712369, 978.8897576
3563.775014, 982.0172009
3563.837659, 982.7990618
3563.900304, 983.5809226
3563.962948, 983.5809226
3564.025593, 983.5809226
3564.088238, 985.1446443
3564.150883, 985.1446443
3564.213528, 985.1446443
3564.276173, 986.7083659
3564.338818, 986.7083659
3564.401463, 986.7083659
3564.464107, 986.7083659
3564.526752, 986.7083659
3564.589397, 985.1446443
3564.652042, 987.4902267
3564.714687, 987.4902267
3564.777332, 988.2720876
3564.839977, 989.0539484
3564.902621, 989.0539484
3564.965266, 990.6176701
3565.027911, 990.6176701
3565.090556, 991.3995309
3565.153201, 991.3995309
3565.215846, 991.3995309
3565.278491, 991.3995309
3565.341136, 991.3995309
3565.40378, 990.6176701
3565.466425, 989.8358092
3565.52907, 989.0539484
3565.591715, 986.7083659
3565.65436, 985.1446443
3565.717005, 982.0172009
3565.77965, 977.326036
3565.842295, 969.5074277
3565.904939, 960.1250977
3565.967584, 952.3064894
3566.030229, 946.8334636
3566.092874, 936.6692729
3566.155519, 928.8506646
3566.218164, 923.3776388
3566.280809, 916.3408913
3566.343454, 909.3041439
3566.406098, 903.0492572
3566.468743, 892.8850665
3566.531388, 883.5027365
3566.594033, 874.1204066
3566.656678, 859.2650508
3566.719323, 853.0101642
3566.781968, 853.0101642
3566.844612, 853.0101642
3566.907257, 853.0101642
3566.969902, 853.0101642
3567.032547, 811.5715403
3567.095192, 803.752932
3567.157837, 797.4980453
3567.220482, 787.3338546
3567.283127, 778.7333855
3567.345771, 770.9147772
3567.408416, 759.9687256
3567.471061, 750.5863956
3567.533706, 741.2040657
3567.596351, 729.4761532
3567.658996, 721.657545
3567.721641, 715.4026583
3567.784286, 709.1477717
3567.84693, 700.5473026
3567.909575, 692.7286943
3567.97222, 682.5645035
3568.034865, 672.4003127
3568.09751, 666.1454261
3568.160155, 655.1993745
3568.2228, 647.3807662
3568.285444, 639.5621579
3568.348089, 630.179828
3568.410734, 622.3612197
3568.473379, 613.7607506
3568.536024, 603.5965598
3568.598669, 595.7779515
3568.661314, 587.9593432
3568.723959, 577.7951525
3568.786603, 571.5402658
3568.849248, 565.2853792
3568.911893, 555.9030493
3568.974538, 550.4300235
3569.037183, 545.7388585
3569.099828, 539.4839719
3569.162473, 533.2290852
3569.225118, 526.9741986
3569.287762, 515.2462862
3569.350407, 506.645817
3569.413052, 499.6090696
3569.475697, 490.2267396
3569.538342, 483.1899922
3569.600987, 476.1532447
3569.663632, 466.7709148
3569.726277, 460.5160281
3569.788921, 456.606724
3569.851566, 450.3518374
3569.914211, 445.6606724
3569.976856, 441.7513683
3570.039501, 434.7146208
3570.102146, 430.0234558
3570.164791, 425.3322909
3570.227435, 418.2955434
3570.29008, 412.8225176
3570.352725, 408.9132134
3570.41537, 402.6583268
3570.478015, 399.5308835
3570.54066, 394.8397185
3570.603305, 389.3666927
3570.66595, 384.6755278
3570.728594, 375.2931978
3570.791239, 369.820172
3570.853884, 362.7834246
3570.916529, 359.6559812
3570.979174, 358.0922596
3571.041819, 351.8373729
3571.104464, 351.8373729
3571.167109, 347.146208
3571.229753, 342.455043
3571.292398, 339.3275997
3571.355043, 334.6364347
3571.417688, 328.3815481
3571.480333, 328.3815481
3571.542978, 316.6536357
3571.605623, 312.7443315
3571.668267, 309.6168882
3571.730912, 308.8350274
3571.793557, 304.1438624
3571.856202, 301.0164191
3571.918847, 297.8889758
3571.981492, 296.3252541
3572.044137, 293.9796716
3572.106782, 291.6340891
3572.169426, 287.724785
3572.232071, 287.724785
3572.294716, 283.8154808
3572.357361, 278.342455
3572.420006, 278.342455
3572.482651, 274.4331509
3572.545296, 271.3057076
3572.607941, 267.3964034
3572.670585, 263.4870993
3572.73323, 260.359656
3572.795875, 256.4503518
3572.85852, 256.4503518
3572.921165, 254.1047694
3572.98381, 252.5410477
3573.046455, 250.1954652
3573.1091, 248.6317435
3573.171744, 247.0680219
3573.234389, 244.7224394
3573.297034, 243.1587177
3573.359679, 239.2494136
3573.422324, 239.2494136
3573.484969, 236.9038311
3573.547614, 235.3401095
3573.610258, 232.994527
3573.672903, 229.0852228
3573.735548, 229.0852228
3573.798193, 226.7396403
3573.860838, 224.3940579
3573.923483, 222.0484754
3573.986128, 219.7028929
3574.048773, 217.3573104
3574.111417, 215.0117279
3574.174062, 212.6661454
3574.236707, 207.1931196
3574.299352, 207.1931196
3574.361997, 201.7200938
3574.424642, 201.7200938
3574.487287, 199.3745113
3574.549932, 196.247068
3574.612576, 192.3377639
3574.675221, 192.3377639
3574.737866, 190.7740422
3574.800511, 189.2103206
3574.863156, 187.6465989
3574.925801, 183.7372948
3574.988446, 183.7372948
3575.051091, 183.7372948
3575.113735, 182.1735731
3575.17638, 180.6098514
3575.239025, 179.0461298
3575.30167, 176.7005473
3575.364315, 176.7005473
3575.42696, 175.1368256
3575.489605, 173.573104
3575.552249, 172.0093823
3575.614894, 171.2275215
3575.677539, 168.881939
3575.740184, 168.881939
3575.802829, 168.1000782
3575.865474, 166.5363565
3575.928119, 165.7544957
3575.990764, 164.9726349
3576.053408, 162.6270524
3576.116053, 162.6270524
3576.178698, 161.8451916
3576.241343, 158.7177482
3576.303988, 158.7177482
3576.366633, 158.7177482
3576.429278, 157.9358874
3576.491923, 154.0265833
3576.554567, 154.0265833
3576.617212, 154.0265833
3576.679857, 154.0265833
3576.742502, 153.2447224
3576.805147, 152.4628616
3576.867792, 151.6810008
3576.930437, 146.9898358
3576.993081, 146.9898358
3577.055726, 146.9898358
3577.118371, 146.9898358
3577.181016, 146.9898358
3577.243661, 146.207975
3577.306306, 141.51681
3577.368951, 141.51681
3577.431596, 141.51681
3577.49424, 141.51681
3577.556885, 137.6075059
3577.61953, 136.825645
3577.682175, 136.0437842
3577.74482, 135.2619234
3577.807465, 135.2619234
3577.87011, 135.2619234
3577.932755, 135.2619234
3577.995399, 135.2619234
3578.058044, 135.2619234
3578.120689, 134.4800625
3578.183334, 133.6982017
3578.245979, 132.9163409
3578.308624, 132.1344801
3578.371269, 131.3526192
3578.433914, 130.5707584
3578.496558, 129.7888976
3578.559203, 129.0070367
3578.621848, 121.9702893
3578.684493, 121.1884285
3578.747138, 120.4065676
3578.809783, 119.6247068
3578.872428, 118.842846
3578.935072, 118.0609851
3578.997717, 117.2791243
3579.060362, 116.4972635
3579.123007, 118.842846
3579.185652, 118.842846
3579.248297, 118.842846
3579.310942, 118.842846
3579.373587, 118.842846
3579.436231, 118.0609851
3579.498876, 117.2791243
3579.561521, 116.4972635
3579.624166, 115.7154027
3579.686811, 114.9335418
3579.749456, 114.151681
3579.812101, 113.3698202
3579.874746, 109.460516
3579.93739, 109.460516
3580.000035, 109.460516
3580.06268, 109.460516
3580.125325, 109.460516
3580.18797, 109.460516
3580.250615, 109.460516
3580.31326, 108.6786552
3580.375904, 108.6786552
3580.438549, 107.8967944
3580.501194, 107.8967944
3580.563839, 107.8967944
3580.626484, 107.1149335
3580.689129, 107.1149335
3580.751774, 106.3330727
3580.814419, 106.3330727
3580.877063, 106.3330727
3580.939708, 104.7693511
3581.002353, 104.7693511
3581.064998, 100.8600469
3581.127643, 100.8600469
3581.190288, 100.8600469
3581.252933, 100.8600469
3581.315578, 100.0781861
3581.378222, 98.51446443
3581.440867, 98.51446443
3581.503512, 98.51446443
3581.566157, 98.51446443
3581.628802, 97.7326036
3581.691447, 90.69585614
3581.754092, 90.69585614
3581.816737, 94.60516028
3581.879381, 94.60516028
3581.942026, 94.60516028
3582.004671, 96.16888194
3582.067316, 96.16888194
3582.129961, 96.16888194
3582.192606, 96.16888194
3582.255251, 96.16888194
3582.317895, 95.38702111
3582.38054, 95.38702111
3582.443185, 94.60516028
3582.50583, 94.60516028
3582.568475, 93.82329945
3582.63112, 93.04143862
3582.693765, 93.04143862
3582.75641, 89.13213448
3582.819054, 89.13213448
3582.881699, 89.13213448
3582.944344, 89.13213448
3583.006989, 89.13213448
3583.069634, 89.13213448
3583.132279, 89.13213448
3583.194924, 89.13213448
3583.257569, 85.22283034
3583.320213, 84.44096951
3583.382858, 84.44096951
3583.445503, 84.44096951
3583.508148, 83.65910868
3583.570793, 83.65910868
3583.633438, 83.65910868
3583.696083, 82.87724785
3583.758727, 82.87724785
3583.821372, 82.09538702
3583.884017, 83.65910868
3583.946662, 83.65910868
3584.009307, 83.65910868
3584.071952, 83.65910868
3584.134597, 83.65910868
3584.197242, 82.87724785
3584.259886, 82.87724785
3584.322531, 81.31352619
3584.385176, 81.31352619
3584.447821, 81.31352619
3584.510466, 81.31352619
3584.573111, 78.18608288
3584.635756, 77.40422205
3584.698401, 78.96794371
3584.761045, 78.96794371
3584.82369, 78.96794371
3584.886335, 78.96794371
3584.94898, 78.96794371
3585.011625, 78.18608288
3585.07427, 78.18608288
3585.136915, 74.27677873
3585.19956, 74.27677873
3585.262204, 73.4949179
3585.324849, 75.84050039
3585.387494, 75.84050039
3585.450139, 75.84050039
3585.512784, 75.84050039
3585.575429, 75.84050039
3585.638074, 71.93119625
3585.700718, 71.93119625
3585.763363, 71.93119625
3585.826008, 71.14933542
3585.888653, 71.14933542
3585.951298, 71.14933542
3586.013943, 70.36747459
3586.076588, 70.36747459
3586.139233, 70.36747459
3586.201877, 70.36747459
3586.264522, 70.36747459
3586.327167, 69.58561376
3586.389812, 69.58561376
3586.452457, 69.58561376
3586.515102, 68.80375293
3586.577747, 68.80375293
3586.640392, 68.0218921
3586.703036, 68.0218921
3586.765681, 68.0218921
3586.828326, 68.0218921
3586.890971, 69.58561376
3586.953616, 69.58561376
3587.016261, 69.58561376
3587.078906, 69.58561376
3587.14155, 69.58561376
3587.204195, 68.80375293
3587.26684, 68.80375293
3587.329485, 66.45817045
3587.39213, 67.24003127
3587.454775, 67.24003127
3587.51742, 67.24003127
3587.580065, 67.24003127
3587.642709, 67.24003127
3587.705354, 66.45817045
3587.767999, 66.45817045
3587.830644, 65.67630962
3587.893289, 65.67630962
3587.955934, 64.11258796
3588.018579, 64.11258796
3588.081224, 64.11258796
3588.143868, 64.11258796
3588.206513, 64.11258796
3588.269158, 63.33072713
3588.331803, 63.33072713
3588.394448, 62.5488663
3588.457093, 62.5488663
3588.519738, 62.5488663
3588.582383, 61.76700547
3588.645027, 60.98514464
3588.707672, 60.98514464
3588.770317, 60.98514464
3588.832962, 60.98514464
3588.895607, 60.98514464
3588.958252, 60.98514464
3589.020897, 60.20328382
3589.083541, 60.20328382
3589.146186, 60.20328382
3589.208831, 60.20328382
3589.271476, 59.42142299
3589.334121, 59.42142299
3589.396766, 59.42142299
3589.459411, 59.42142299
3589.522056, 58.63956216
3589.5847, 58.63956216
3589.647345, 58.63956216
3589.70999, 58.63956216
3589.772635, 57.85770133
3589.83528, 57.85770133
3589.897925, 57.85770133
3589.96057, 57.85770133
3590.023215, 57.85770133
3590.085859, 57.0758405
3590.148504, 57.0758405
3590.211149, 57.0758405
3590.273794, 57.0758405
3590.336439, 56.29397967
3590.399084, 55.51211884
3590.461729, 55.51211884
3590.524374, 55.51211884
3590.587018, 55.51211884
3590.649663, 55.51211884
3590.712308, 55.51211884
3590.774953, 55.51211884
3590.837598, 55.51211884
3590.900243, 54.73025801
3590.962888, 54.73025801
3591.025532, 54.73025801
3591.088177, 54.73025801
3591.150822, 54.73025801
3591.213467, 53.94839719
3591.276112, 53.94839719
3591.338757, 53.94839719
3591.401402, 53.94839719
3591.464047, 53.94839719
3591.526691, 53.16653636
3591.589336, 53.16653636
3591.651981, 53.16653636
3591.714626, 53.16653636
3591.777271, 53.16653636
3591.839916, 53.16653636
3591.902561, 52.38467553
3591.965206, 52.38467553
3592.02785, 52.38467553
3592.090495, 52.38467553
3592.15314, 52.38467553
3592.215785, 51.6028147
3592.27843, 51.6028147
3592.341075, 51.6028147
3592.40372, 51.6028147
3592.466364, 51.6028147
3592.529009, 51.6028147
3592.591654, 50.82095387
3592.654299, 50.82095387
3592.716944, 50.82095387
3592.779589, 50.82095387
3592.842234, 50.82095387
3592.904879, 50.82095387
3592.967523, 47.69351056
3593.030168, 47.69351056
3593.092813, 46.91164973
3593.155458, 46.91164973
3593.218103, 46.91164973
3593.280748, 46.91164973
3593.343393, 49.25723221
3593.406038, 49.25723221
3593.468682, 49.25723221
3593.531327, 49.25723221
3593.593972, 49.25723221
3593.656617, 48.47537138
3593.719262, 48.47537138
3593.781907, 48.47537138
3593.844552, 48.47537138
3593.907197, 48.47537138
3593.969841, 48.47537138
3594.032486, 48.47537138
3594.095131, 47.69351056
3594.157776, 47.69351056
3594.220421, 47.69351056
3594.283066, 47.69351056
3594.345711, 47.69351056
3594.408355, 47.69351056
3594.471, 47.69351056
3594.533645, 46.91164973
3594.59629, 46.91164973
3594.658935, 46.91164973
3594.72158, 46.91164973
3594.784225, 46.91164973
3594.84687, 46.91164973
3594.909514, 46.1297889
3594.972159, 46.1297889
3595.034804, 46.1297889
3595.097449, 46.1297889
3595.160094, 46.1297889
3595.222739, 46.1297889
3595.285384, 46.1297889
3595.348029, 46.1297889
3595.410673, 45.34792807
3595.473318, 45.34792807
3595.535963, 45.34792807
3595.598608, 45.34792807
3595.661253, 45.34792807
3595.723898, 45.34792807
3595.786543, 45.34792807
3595.849187, 44.56606724
3595.911832, 44.56606724
3595.974477, 44.56606724
3596.037122, 44.56606724
3596.099767, 44.56606724
3596.162412, 44.56606724
3596.225057, 44.56606724
3596.287702, 43.78420641
3596.350346, 43.78420641
3596.412991, 43.78420641
3596.475636, 43.78420641
3596.538281, 43.78420641
3596.600926, 43.78420641
3596.663571, 43.78420641
3596.726216, 43.78420641
3596.788861, 43.78420641
3596.851505, 42.22048475
3596.91415, 42.22048475
3596.976795, 42.22048475
3597.03944, 42.22048475
3597.102085, 42.22048475
3597.16473, 42.22048475
3597.227375, 42.22048475
3597.29002, 42.22048475
3597.352664, 42.22048475
3597.415309, 41.43862392
3597.477954, 41.43862392
3597.540599, 41.43862392
3597.603244, 41.43862392
3597.665889, 41.43862392
3597.728534, 41.43862392
3597.791178, 41.43862392
3597.853823, 41.43862392
3597.916468, 41.43862392
3597.979113, 41.43862392
3598.041758, 41.43862392
3598.104403, 41.43862392
3598.167048, 40.6567631
3598.229693, 40.6567631
3598.292337, 40.6567631
3598.354982, 40.6567631
3598.417627, 40.6567631
3598.480272, 40.6567631
3598.542917, 40.6567631
3598.605562, 40.6567631
3598.668207, 42.22048475
3598.730852, 42.22048475
3598.793496, 42.22048475
3598.856141, 42.22048475
3598.918786, 42.22048475
3598.981431, 41.43862392
3599.044076, 40.6567631
3599.106721, 40.6567631
3599.169366, 40.6567631
3599.23201, 40.6567631
3599.294655, 40.6567631
3599.3573, 39.87490227
3599.419945, 39.87490227
3599.48259, 39.87490227
3599.545235, 39.87490227
3599.60788, 39.87490227
3599.670525, 37.52931978
3599.733169, 39.09304144
3599.795814, 39.09304144
3599.858459, 39.09304144
3599.921104, 39.09304144
3599.983749, 39.09304144
3600.046394, 39.09304144
3600.109039, 39.09304144
3600.171684, 35.96559812
3600.234328, 35.96559812
3600.296973, 35.96559812
3600.359618, 38.31118061
3600.422263, 38.31118061
3600.484908, 38.31118061
3600.547553, 38.31118061
3600.610198, 38.31118061
3600.672843, 35.96559812
3600.735487, 35.96559812
3600.798132, 35.96559812
3600.860777, 37.52931978
3600.923422, 37.52931978
3600.986067, 37.52931978
3601.048712, 37.52931978
3601.111357, 37.52931978
3601.174001, 37.52931978
3601.236646, 34.40187647
3601.299291, 34.40187647
3601.361936, 34.40187647
3601.424581, 34.40187647
3601.487226, 36.74745895
3601.549871, 36.74745895
3601.612516, 36.74745895
3601.67516, 36.74745895
3601.737805, 36.74745895
3601.80045, 36.74745895
3601.863095, 36.74745895
3601.92574, 36.74745895
3601.988385, 34.40187647
3602.05103, 34.40187647
3602.113675, 35.96559812
3602.176319, 35.96559812
3602.238964, 35.96559812
3602.301609, 35.96559812
3602.364254, 35.96559812
3602.426899, 35.96559812
3602.489544, 35.96559812
3602.552189, 35.18373729
3602.614833, 35.18373729
3602.677478, 35.18373729
3602.740123, 35.18373729
3602.802768, 35.18373729
3602.865413, 35.18373729
3602.928058, 35.18373729
3602.990703, 35.18373729
3603.053348, 35.18373729
3603.115992, 35.18373729
3603.178637, 35.18373729
3603.241282, 34.40187647
3603.303927, 34.40187647
3603.366572, 34.40187647
3603.429217, 34.40187647
3603.491862, 32.83815481
3603.554507, 32.83815481
3603.617151, 32.83815481
3603.679796, 32.83815481
3603.742441, 32.83815481
3603.805086, 32.83815481
3603.867731, 32.83815481
3603.930376, 32.83815481
3603.993021, 32.83815481
3604.055666, 32.83815481
3604.11831, 32.83815481
3604.180955, 32.83815481
3604.2436, 32.83815481
3604.306245, 32.83815481
3604.36889, 32.83815481
3604.431535, 32.83815481
3604.49418, 32.83815481
3604.556824, 32.83815481
3604.619469, 34.40187647
3604.682114, 34.40187647
3604.744759, 34.40187647
3604.807404, 34.40187647
3604.870049, 34.40187647
3604.932694, 34.40187647
3604.995339, 33.62001564
3605.057983, 33.62001564
3605.120628, 33.62001564
3605.183273, 33.62001564
3605.245918, 32.83815481
3605.308563, 32.83815481
3605.371208, 32.83815481
3605.433853, 32.83815481
3605.496498, 32.83815481
3605.559142, 32.05629398
3605.621787, 32.05629398
3605.684432, 32.05629398
3605.747077, 32.05629398
3605.809722, 32.05629398
3605.872367, 31.27443315
3605.935012, 31.27443315
3605.997657, 31.27443315
3606.060301, 30.49257232
3606.122946, 30.49257232
3606.185591, 30.49257232
3606.248236, 29.71071149
3606.310881, 29.71071149
3606.373526, 29.71071149
3606.436171, 29.71071149
3606.498815, 29.71071149
3606.56146, 28.92885066
3606.624105, 28.92885066
3606.68675, 28.92885066
3606.749395, 28.92885066
3606.81204, 28.92885066
3606.874685, 28.92885066
3606.93733, 28.92885066
3606.999974, 28.92885066
3607.062619, 28.92885066
3607.125264, 28.92885066
3607.187909, 28.92885066
3607.250554, 28.92885066
3607.313199, 28.92885066
3607.375844, 28.92885066
3607.438489, 28.92885066
3607.501133, 28.92885066
3607.563778, 28.92885066
3607.626423, 29.71071149
3607.689068, 29.71071149
3607.751713, 29.71071149
3607.814358, 29.71071149
3607.877003, 29.71071149
3607.939647, 29.71071149
3608.002292, 29.71071149
3608.064937, 29.71071149
3608.127582, 29.71071149
3608.190227, 29.71071149
3608.252872, 29.71071149
3608.315517, 29.71071149
3608.378162, 29.71071149
3608.440806, 29.71071149
3608.503451, 29.71071149
3608.566096, 29.71071149
3608.628741, 30.49257232
3608.691386, 30.49257232
3608.754031, 30.49257232
3608.816676, 30.49257232
3608.879321, 30.49257232
3608.941965, 30.49257232
3609.00461, 30.49257232
3609.067255, 30.49257232
3609.1299, 30.49257232
3609.192545, 30.49257232
3609.25519, 30.49257232
3609.317835, 30.49257232
3609.38048, 30.49257232
3609.443124, 30.49257232
3609.505769, 30.49257232
3609.568414, 30.49257232
3609.631059, 30.49257232
3609.693704, 30.49257232
3609.756349, 30.49257232
3609.818994, 30.49257232
3609.881638, 30.49257232
3609.944283, 30.49257232
3610.006928, 30.49257232
3610.069573, 30.49257232
3610.132218, 30.49257232
3610.194863, 30.49257232
3610.257508, 30.49257232
3610.320153, 30.49257232
3610.382797, 30.49257232
3610.445442, 30.49257232
3610.508087, 30.49257232
3610.570732, 30.49257232
3610.633377, 30.49257232
3610.696022, 30.49257232
3610.758667, 30.49257232
3610.821312, 30.49257232
3610.883956, 30.49257232
3610.946601, 23.45582486
3611.009246, 23.45582486
3611.071891, 23.45582486
3611.134536, 23.45582486
3611.197181, 30.49257232
3611.259826, 30.49257232
3611.32247, 30.49257232
3611.385115, 30.49257232
3611.44776, 30.49257232
3611.510405, 30.49257232
3611.57305, 30.49257232
3611.635695, 30.49257232
3611.69834, 30.49257232
3611.760985, 30.49257232
3611.823629, 30.49257232
3611.886274, 30.49257232
3611.948919, 30.49257232
3612.011564, 30.49257232
3612.074209, 30.49257232
3612.136854, 30.49257232
3612.199499, 30.49257232
3612.262144, 30.49257232
3612.324788, 30.49257232
3612.387433, 30.49257232
3612.450078, 30.49257232
3612.512723, 29.71071149
3612.575368, 30.49257232
3612.638013, 30.49257232
3612.700658, 30.49257232
3612.763303, 30.49257232
3612.825947, 30.49257232
3612.888592, 30.49257232
3612.951237, 30.49257232
3613.013882, 30.49257232
3613.076527, 30.49257232
3613.139172, 30.49257232
3613.201817, 30.49257232
3613.264461, 30.49257232
3613.327106, 30.49257232
3613.389751, 30.49257232
3613.452396, 30.49257232
3613.515041, 30.49257232
3613.577686, 30.49257232
3613.640331, 30.49257232
3613.702976, 31.27443315
3613.76562, 31.27443315
3613.828265, 31.27443315
3613.89091, 31.27443315
3613.953555, 31.27443315
3614.0162, 28.92885066
3614.078845, 28.92885066
3614.14149, 28.14698984
3614.204135, 28.14698984
3614.266779, 28.14698984
3614.329424, 28.14698984
3614.392069, 28.14698984
3614.454714, 28.14698984
3614.517359, 28.14698984
3614.580004, 28.14698984
3614.642649, 28.14698984
3614.705293, 28.14698984
3614.767938, 28.14698984
3614.830583, 28.92885066
3614.893228, 28.92885066
3614.955873, 28.92885066
3615.018518, 28.92885066
3615.081163, 28.92885066
3615.143808, 28.92885066
3615.206452, 28.92885066
3615.269097, 28.92885066
3615.331742, 28.92885066
3615.394387, 28.92885066
3615.457032, 28.14698984
3615.519677, 28.14698984
3615.582322, 28.14698984
3615.644967, 28.14698984
3615.707611, 28.14698984
3615.770256, 28.14698984
3615.832901, 28.14698984
3615.895546, 28.14698984
3615.958191, 28.14698984
3616.020836, 28.14698984
3616.083481, 28.14698984
3616.146126, 28.14698984
3616.20877, 27.36512901
3616.271415, 27.36512901
3616.33406, 27.36512901
3616.396705, 27.36512901
3616.45935, 27.36512901
3616.521995, 27.36512901
3616.58464, 27.36512901
3616.647284, 27.36512901
3616.709929, 27.36512901
3616.772574, 27.36512901
3616.835219, 27.36512901
3616.897864, 26.58326818
3616.960509, 26.58326818
3617.023154, 26.58326818
3617.085799, 26.58326818
3617.148443, 26.58326818
3617.211088, 26.58326818
3617.273733, 26.58326818
3617.336378, 26.58326818
3617.399023, 26.58326818
3617.461668, 26.58326818
3617.524313, 26.58326818
3617.586958, 26.58326818
3617.649602, 26.58326818
3617.712247, 26.58326818
3617.774892, 30.49257232
3617.837537, 30.49257232
3617.900182, 30.49257232
3617.962827, 30.49257232
3618.025472, 31.27443315
3618.088117, 31.27443315
3618.150761, 31.27443315
3618.213406, 31.27443315
3618.276051, 31.27443315
3618.338696, 31.27443315
3618.401341, 31.27443315
3618.463986, 31.27443315
3618.526631, 31.27443315
3618.589275, 31.27443315
3618.65192, 30.49257232
3618.714565, 30.49257232
3618.77721, 30.49257232
3618.839855, 30.49257232
3618.9025, 30.49257232
3618.965145, 29.71071149
3619.02779, 29.71071149
3619.090434, 29.71071149
3619.153079, 29.71071149
3619.215724, 29.71071149
3619.278369, 28.92885066
3619.341014, 28.92885066
3619.403659, 28.14698984
3619.466304, 28.14698984
3619.528949, 28.14698984
3619.591593, 27.36512901
3619.654238, 27.36512901
3619.716883, 26.58326818
3619.779528, 26.58326818
3619.842173, 25.80140735
3619.904818, 25.80140735
3619.967463, 25.80140735