#Acq. time (s)=	60
#Accumulations=	4
#Range (cm-¹)=	60...1800
#Windows=	1
#Auto scanning=	Off
#Autofocus=	Off
#AutoExposure=	Off
#Spike filter=	Multiple accum.
#Delay time (s)=	0
#Binning=	1
#Readout mode=	Signal
#DeNoise=	Off
#ICS correction=	Off
#Dark correction=	Off
#Inst. Process=	Off
#Detector Gain=	Best Dynamic Range
#Detector ADC=	45 kHz       
#Detector temperature (°C)=	-60.1
#Instrument=	XploRA Plus
#Detector=	Syncerity OE
#Objective=	x50_VIS_LWD
#Grating=	1200 (750nm)
#Filter=	50%
#Laser=	638nm_Edge
#Slit (µm)=	100 
#Hole (µm)=	100 
#Temperature=	0
#StageXY=	75x50mm Scan+
#StageZ=	Z motor
#X (µm)=	0
#Y (µm)=	0
#Z (µm)=	10.2
#Full time(mm:ss)=	4:05
#Project=	
#Sample=	APresstablette900
#Site=	
#Title=	D
#Remark=	
#Date=	08.05.2025 11:25
#Acquired=	08.05.2025 11:25:58
#AxisType[0]=Intens
#AxisUnit[0]=Cnt
#AxisType[1]=Spectr
#AxisUnit[1]=1/cm
61.4691	507.667
63.6326	446.333
65.7969	442.333
67.9592	471.667
70.1224	463
72.2835	492.333
74.444	496.333
76.6038	467.667
78.7646	455
80.9233	472.333
83.0814	495
85.2389	453
87.3958	441.667
89.5521	469
91.7078	481
93.8614	458.333
96.0159	449
98.1699	453
100.322	436.333
102.474	425
104.627	465.667
106.777	455.667
108.926	451.667
111.076	423
113.225	421
115.372	453
117.521	437
119.667	436.333
121.813	456.333
123.959	448.333
126.103	429
128.248	451.667
130.391	430.333
132.534	417.667
134.676	425.667
136.817	437
138.958	436.333
141.098	421.667
143.237	421.667
145.376	443.667
147.514	427.667
149.652	435
151.788	428.333
153.924	425.667
156.06	437
158.195	426.333
160.328	433
162.462	426.333
164.594	439
166.726	428.333
168.858	438.333
170.989	443
173.119	442.333
175.247	443.667
177.376	453
179.505	465.667
181.632	509
183.759	565
185.884	611.667
188.01	677
190.135	657
192.258	590.333
194.383	544.333
196.505	511
198.627	471.667
200.748	457
202.869	442.333
204.989	453
207.108	451.667
209.227	443.667
211.346	437
213.462	435
215.579	427.667
217.696	430.333
219.81	413.667
221.926	434.333
224.039	434.333
226.154	418.333
228.266	429
230.378	414.333
232.489	396.333
234.601	420.333
236.711	417
238.82	417.667
240.929	411.667
243.037	410.333
245.145	428.333
247.25	421
249.357	421.667
251.463	419
253.568	430.333
255.671	420.333
257.776	419.667
259.878	429
261.981	436.333
264.082	431
266.182	435.667
268.282	417
270.383	416.333
272.482	427
274.58	423
276.677	429
278.774	420.333
280.871	407.667
282.965	423
285.061	429.667
287.155	441
289.25	401
291.342	425
293.435	402.333
295.526	423
297.618	403.667
299.708	401.667
301.797	416.333
303.886	406.333
305.975	418.333
308.063	418.333
310.15	404.333
312.236	411
314.322	411.667
316.406	406.333
318.491	414.333
320.575	397
322.659	416.333
324.74	399
326.823	410.333
328.903	415.667
330.985	408.333
333.064	423
335.143	401
337.223	411
339.3	395.667
341.378	418.333
343.454	397.667
345.53	411
347.606	389
349.681	413.667
351.755	415
353.827	405.667
355.9	416.333
357.973	397.667
360.044	419
362.115	415.667
364.185	409
366.254	413
368.324	408.333
370.391	407
372.459	409.667
374.525	424.333
376.592	398.333
378.657	410.333
380.722	405.667
382.787	409
384.851	419
386.914	394.333
388.975	389.667
391.038	382.333
393.098	407
395.159	393.667
397.218	402.333
399.278	399.667
401.337	407
403.394	397.667
405.451	397.667
407.507	408.333
409.563	413.667
411.619	422.333
413.673	427
415.728	441.667
417.781	441.667
419.834	458.333
421.885	457.667
423.937	459.667
425.987	483.667
428.038	472.333
430.087	465.667
432.136	446.333
434.185	445.667
436.232	430.333
438.279	413.667
440.325	413
442.371	400.333
444.416	405.667
446.46	403
448.503	401
450.546	396.333
452.589	389
454.63	386.333
456.672	387
458.711	395
460.752	377
462.791	386.333
464.829	371.667
466.867	373
468.905	389
470.942	398.333
472.978	382.333
475.012	379
477.047	385.667
479.081	398.333
481.115	413.667
483.147	410.333
485.179	423.667
487.21	429.667
489.242	442.333
491.271	446.333
493.302	460.333
495.331	501
497.359	530.333
499.386	544.333
501.413	579
503.44	617.667
505.465	620.333
507.491	622.333
509.514	605.667
511.538	575.667
513.562	551
515.584	511.667
517.607	471
519.627	470.333
521.649	447.667
523.669	423
525.688	417.667
527.706	396.333
529.724	426.333
531.742	414.333
533.759	395.667
535.775	396.333
537.791	394.333
539.805	376.333
541.82	381
543.834	379.667
545.846	387
547.858	385.667
549.871	387
551.881	385
553.892	371
555.901	393
557.912	389
559.92	376.333
561.927	381
563.934	371.667
565.941	385
567.948	386.333
569.952	382.333
571.958	381.667
573.963	366.333
575.966	385
577.968	395
579.971	383.667
581.973	386.333
583.973	377
585.974	383
587.973	377.667
589.973	360.333
591.971	366.333
593.969	365.667
595.966	360.333
597.963	375.667
599.958	367.667
601.954	351
603.948	359.667
605.943	350.333
607.936	356.333
609.929	375
611.921	357
613.912	361.667
615.903	367.667
617.894	368.333
619.883	367.667
621.873	362.333
623.86	379
625.849	373
627.836	384.333
629.822	377.667
631.808	375.667
633.794	377
635.778	375.667
637.762	382.333
639.745	375
641.728	385
643.71	377.667
645.692	387.667
647.673	389.667
649.654	394.333
651.633	397
653.612	393
655.59	396.333
657.569	408.333
659.545	403.667
661.522	403.667
663.499	421
665.474	409.667
667.448	423
669.422	446.333
671.396	441
673.368	453.667
675.34	449.667
677.312	457
679.282	456.333
681.253	455
683.222	443.667
685.192	435.667
687.16	426.333
689.128	413
691.095	409
693.061	392.333
695.027	402.333
696.993	385
698.958	388.333
700.922	373
702.885	389
704.848	389
706.81	375
708.772	379
710.733	375
712.694	371.667
714.653	366.333
716.612	383.667
718.571	371.667
720.529	369.667
722.486	374.333
724.443	380.333
726.398	373
728.354	375.667
730.309	368.333
732.263	373
734.216	380.333
736.17	366.333
738.122	366.333
740.073	380.333
742.024	389.667
743.974	377
745.924	373.667
747.874	361
749.823	364.333
751.771	366.333
753.718	381
755.665	375.667
757.611	376.333
759.557	371.667
761.501	368.333
763.445	374.333
765.39	366.333
767.333	371.667
769.276	373
771.218	361.667
773.158	371
775.099	368.333
777.039	373.667
778.978	378.333
780.917	385.667
782.855	382.333
784.793	378.333
786.73	379
788.666	377.667
790.602	378.333
792.537	378.333
794.471	371
796.405	383
798.339	386.333
800.272	383.667
802.203	371
804.135	379.667
806.065	372.333
807.996	387
809.925	393
811.854	387.667
813.782	387
815.71	382.333
817.637	393.667
819.564	376.333
821.49	385.667
823.416	400.333
825.34	381
827.264	381.667
829.187	389
831.111	395.667
833.033	387
834.954	379
836.876	403
838.797	386.333
840.717	391
842.636	403.667
844.553	395.667
846.472	389
848.39	403
850.306	396.333
852.223	402.333
854.138	395.667
856.052	400.333
857.968	392.333
859.881	399
861.794	385
863.707	378.333
865.619	399
867.531	383.667
869.44	393.667
871.351	369
873.261	389
875.169	381
877.077	389
878.986	377
880.893	379
882.799	390.333
884.705	383.667
886.61	439
888.515	387.667
890.419	374.333
892.323	388.333
894.225	389.667
896.128	377.667
898.029	380.333
899.931	379
901.831	381
903.731	377
905.63	377.667
907.529	373
909.427	363.667
911.324	363.667
913.221	381.667
915.117	363
917.013	373
918.907	385
920.802	385
922.696	375
924.59	365.667
926.483	376.333
928.375	373
930.266	373.667
932.157	373.667
934.046	375.667
935.936	365.667
937.826	367.667
939.713	375
941.602	370.333
943.489	368.333
945.376	366.333
947.262	385
949.147	380.333
951.032	372.333
952.916	361.667
954.8	358.333
956.682	360.333
958.565	361
960.447	356.333
962.328	366.333
964.209	380.333
966.089	351
967.968	372.333
969.847	357.667
971.725	368.333
973.603	364.333
975.48	364.333
977.357	373.667
979.233	379.667
981.107	379.667
982.983	372.333
984.856	379.667
986.731	359
988.603	383.667
990.475	372.333
992.347	361.667
994.218	381
996.089	365
997.959	369
999.829	385
1001.7	381
1003.57	368.333
1005.43	385
1007.3	391
1009.17	373.667
1011.03	389
1012.9	371
1014.76	367.667
1016.63	383.667
1018.49	385
1020.35	370.333
1022.21	377.667
1024.08	391.667
1025.94	375.667
1027.8	387
1029.66	386.333
1031.52	385
1033.37	389
1035.23	383
1037.09	389.667
1038.95	396.333
1040.8	387
1042.66	394.333
1044.51	387
1046.37	377
1048.22	394.333
1050.08	397
1051.93	376.333
1053.78	395
1055.63	382.333
1057.48	397
1059.33	393.667
1061.18	382.333
1063.03	384.333
1064.88	377
1066.73	381
1068.58	391.667
1070.42	393.667
1072.27	403.667
1074.11	390.333
1075.96	401
1077.8	401
1079.65	407
1081.49	387
1083.33	396.333
1085.18	397.667
1087.02	408.333
1088.86	396.333
1090.7	401.667
1092.54	384.333
1094.38	401.667
1096.22	396.333
1098.06	386.333
1099.89	408.333
1101.73	378.333
1103.57	389.667
1105.4	401
1107.24	398.333
1109.07	414.333
1110.91	405
1112.74	402.333
1114.57	392.333
1116.4	413
1118.23	402.333
1120.07	380.333
1121.9	401.667
1123.73	407.667
1125.56	419.667
1127.39	395.667
1129.21	405.667
1131.04	409.667
1132.87	407
1134.69	410.333
1136.52	408.333
1138.35	411
1140.17	405.667
1141.99	423.667
1143.82	403.667
1145.64	411.667
1147.46	411.667
1149.28	401.667
1151.1	412.333
1152.93	417
1154.75	418.333
1156.57	413
1158.38	403.667
1160.2	405.667
1162.02	414.333
1163.84	416.333
1165.65	403
1167.47	405.667
1169.28	413
1171.1	410.333
1172.91	425.667
1174.73	405
1176.54	407
1178.35	417
1180.16	420.333
1181.97	404.333
1183.79	418.333
1185.6	398.333
1187.41	411
1189.21	413.667
1191.02	407.667
1192.83	418.333
1194.64	413.667
1196.44	433.667
1198.25	415.667
1200.06	429.667
1201.86	399
1203.66	417.667
1205.47	422.333
1207.27	433.667
1209.07	403.667
1210.88	401
1212.68	424.333
1214.48	427
1216.28	417
1218.08	439.667
1219.88	431
1221.68	430.333
1223.47	435
1225.27	427
1227.07	424.333
1228.87	445
1230.66	439
1232.46	427
1234.25	413.667
1236.04	437.667
1237.84	433.667
1239.63	438.333
1241.42	457.667
1243.22	431
1245.01	435.667
1246.8	434.333
1248.59	431
1250.38	435
1252.16	424.333
1253.95	438.333
1255.74	427
1257.53	430.333
1259.31	435.667
1261.1	431.667
1262.89	447.667
1264.67	437.667
1266.45	437
1268.24	441
1270.02	441
1271.8	433.667
1273.59	449.667
1275.37	435.667
1277.15	444.333
1278.93	451
1280.71	433.667
1282.49	451.667
1284.27	455
1286.04	453
1287.82	445
1289.6	437
1291.37	445.667
1293.15	437.667
1294.92	445.667
1296.7	443.667
1298.47	434.333
1300.25	434.333
1302.02	459.667
1303.79	454.333
1305.56	461
1307.33	446.333
1309.1	463.667
1310.87	440.333
1312.64	451.667
1314.41	455
1316.18	447
1317.95	453
1319.72	472.333
1321.48	453
1323.25	454.333
1325.01	468.333
1326.78	461
1328.54	448.333
1330.31	470.333
1332.07	445.667
1333.83	456.333
1335.6	451.667
1337.36	477
1339.12	455.667
1340.88	441.667
1342.64	457.667
1344.4	463.667
1346.16	474.333
1347.91	461.667
1349.67	464.333
1351.43	477.667
1353.18	467.667
1354.94	463.667
1356.7	463.667
1358.45	472.333
1360.21	444.333
1361.96	474.333
1363.71	474.333
1365.46	457.667
1367.22	467
1368.97	465
1370.72	471
1372.47	457.667
1374.22	466.333
1375.97	479
1377.72	463.667
1379.46	462.333
1381.21	476.333
1382.96	479
1384.7	464.333
1386.45	465.667
1388.2	481.667
1389.94	467
1391.68	455
1393.43	460.333
1395.17	477
1396.91	465
1398.65	478.333
1400.4	467.667
1402.14	467
1403.88	479
1405.62	460.333
1407.36	466.333
1409.09	473.667
1410.83	472.333
1412.57	466.333
1414.31	462.333
1416.04	463.667
1417.78	470.333
1419.51	474.333
1421.25	465
1422.98	481.667
1424.72	482.333
1426.45	461
1428.18	471.667
1429.91	460.333
1431.64	467.667
1433.37	472.333
1435.1	477.667
1436.83	471.667
1438.56	473
1440.29	466.333
1442.02	485.667
1443.75	473.667
1445.47	469.667
1447.2	476.333
1448.93	479.667
1450.65	470.333
1452.38	471.667
1454.1	467
1455.82	482.333
1457.54	480.333
1459.27	477.667
1460.99	484.333
1462.71	493
1464.43	472.333
1466.15	478.333
1467.87	490.333
1469.59	482.333
1471.31	485
1473.03	482.333
1474.74	481
1476.46	487
1478.18	471
1479.89	487.667
1481.61	471.667
1483.32	475.667
1485.04	462.333
1486.75	476.333
1488.46	477
1490.17	474.333
1491.89	491
1493.6	487.667
1495.31	483
1497.02	491
1498.73	464.333
1500.44	499
1502.15	489
1503.85	481.667
1505.56	483
1507.27	501.667
1508.97	478.333
1510.68	482.333
1512.39	490.333
1514.09	495.667
1515.79	474.333
1517.5	481
1519.2	489.667
1520.9	477.667
1522.61	499
1524.31	497
1526.01	485.667
1527.71	492.333
1529.41	483.667
1531.11	486.333
1532.81	493
1534.5	489.667
1536.2	474.333
1537.9	483.667
1539.59	495.667
1541.29	486.333
1542.98	483.667
1544.68	492.333
1546.37	517
1548.07	475.667
1549.76	488.333
1551.45	481
1553.15	490.333
1554.84	491
1556.53	497.667
1558.22	477.667
1559.91	497
1561.6	493.667
1563.29	505.667
1564.97	483.667
1566.66	490.333
1568.35	491.667
1570.04	489
1571.72	498.333
1573.41	492.333
1575.09	494.333
1576.78	494.333
1578.46	490.333
1580.14	476.333
1581.83	487
1583.51	502.333
1585.19	499.667
1586.87	486.333
1588.55	498.333
1590.23	512.333
1591.91	499.667
1593.59	505.667
1595.27	483
1596.95	505.667
1598.63	494.333
1600.3	493
1601.98	486.333
1603.65	485
1605.33	488.333
1607	486.333
1608.68	493
1610.35	531
1612.03	497
1613.7	492.333
1615.37	506.333
1617.04	518.333
1618.71	493.667
1620.38	495
1622.05	473.667
1623.72	494.333
1625.39	494.333
1627.06	495.667
1628.73	491.667
1630.39	505.667
1632.06	507
1633.73	509
1635.39	492.333
1637.06	503
1638.72	521.667
1640.38	491
1642.05	494.333
1643.71	511
1645.37	497
1647.03	502.333
1648.7	513.667
1650.36	495
1652.02	501
1653.68	511.667
1655.34	520.333
1656.99	510.333
1658.65	507
1660.31	501.667
1661.97	511
1663.62	510.333
1665.28	515
1666.93	507
1668.59	499.667
1670.24	519.667
1671.9	525.667
1673.55	513
1675.2	487.667
1676.85	513
1678.5	501
1680.16	530.333
1681.81	491
1683.46	511
1685.11	503
1686.75	514.333
1688.4	497
1690.05	499.667
1691.7	519
1693.34	527.667
1694.99	525
1696.64	503
1698.28	508.333
1699.93	517
1701.57	503.667
1703.21	529
1704.86	503.667
1706.5	521.667
1708.14	524.333
1709.78	495.667
1711.42	524.333
1713.06	525.667
1714.7	525
1716.34	521.667
1717.98	518.333
1719.62	522.333
1721.26	523
1722.89	517
1724.53	518.333
1726.17	520.333
1727.8	523.667
1729.44	506.333
1731.07	520.333
1732.71	516.333
1734.34	515
1735.97	512.333
1737.6	513.667
1739.24	506.333
1740.87	509.667
1742.5	505.667
1744.13	513.667
1745.76	518.333
1747.39	510.333
1749.02	519
1750.64	500.333
1752.27	519
1753.9	502.333
1755.53	505.667
1757.15	513
1758.78	521.667
1760.4	522.333
1762.03	512.333
1763.65	505.667
1765.27	515.667
1766.9	517.667
1768.52	516.333
1770.14	517.667
1771.76	523.667
1773.38	523
1775	531.667
1776.62	531.667
1778.24	534.333
1779.86	517.667
1781.48	525
1783.1	510.333
1784.71	533.667
1786.33	532.333
1787.95	526.333
1789.56	520.333
1791.18	538.333
1792.79	513.667
1794.4	538.333
1796.02	516.333
1797.63	521
1799.24	519.667
