#Acq. time (s)=	90
#Accumulations=	4
#Range (cm-¹)=	60...1900
#Windows=	1
#Auto scanning=	Off
#Autofocus=	Off
#AutoExposure=	Off
#Spike filter=	Multiple accum.
#Delay time (s)=	0
#Binning=	1
#Readout mode=	Signal
#DeNoise=	Off
#ICS correction=	Off
#Dark correction=	Off
#Inst. Process=	Off
#Detector Gain=	Best Dynamic Range
#Detector ADC=	45 kHz       
#Detector temperature (°C)=	-59.91
#Instrument=	XploRA Plus
#Detector=	Syncerity OE
#Objective=	x50_VIS_LWD
#Grating=	1200 (750nm)
#Filter=	10%
#Laser=	638nm_Edge
#Slit (µm)=	200 
#Hole (µm)=	300 
#Temperature=	0
#StageXY=	75x50mm Scan+
#StageZ=	Z motor
#X (µm)=	0
#Y (µm)=	0
#Z (µm)=	-61
#Full time(mm:ss)=	6:10
#Project=	
#Sample=	Probe5-Punkt3
#Site=	
#Title=	638nm_50er_10
#Remark=	
#Date=	28.05.2025 10:06
#Acquired=	28.05.2025 10:06:17
#AxisType[0]=Intens
#AxisUnit[0]=Cnt
#AxisType[1]=Spectr
#AxisUnit[1]=1/cm
61.8486	2217.67
64.0134	2233.67
66.1762	2195.67
68.3399	2200.33
70.5014	2215
72.6624	2163.67
74.8243	2166.33
76.9841	2195
79.1432	2157
81.3018	2153.67
83.4598	2119.67
85.6172	2121
87.774	2169
89.9302	2112.33
92.0858	2100.33
94.2408	2107.67
96.3937	2089
98.5476	2084.33
100.701	2095
102.852	2097.67
105.004	2097.67
107.154	2097
109.305	2059
111.453	2054.33
113.602	2073.67
115.751	2024.33
117.898	2059.67
120.044	2037
122.19	2093.67
124.335	2057.67
126.48	2067
128.624	2077
130.767	2048.33
132.91	2033
135.052	2062.33
137.193	2081
139.334	2049.67
141.474	2009.67
143.613	2068.33
145.752	2017
147.889	2023
150.027	2021.67
152.163	2007
154.299	2001
156.435	2035
158.569	2013.67
160.703	2000.33
162.836	1995.67
164.969	2034.33
167.101	2035
169.232	2068.33
171.363	2039.67
173.493	2042.33
175.621	2032.33
177.75	2042.33
179.879	2047
182.005	1997
184.132	1972.33
186.258	1959.67
188.384	1999
190.508	1983.67
192.631	1955.67
194.754	1959
196.878	1978.33
199	2023
201.121	1947
203.241	1971
205.361	1967.67
207.481	2004.33
209.6	2007.67
211.716	1971.67
213.834	1967
215.951	1973.67
218.066	1985.67
220.182	2003
222.298	1957.67
224.411	1982.33
226.524	2003.67
228.637	2002.33
230.749	2042.33
232.86	2011.67
234.97	2022.33
237.08	2034.33
239.189	2003.67
241.298	2035.67
243.406	2045
245.514	2040.33
247.621	2058.33
249.727	2042.33
251.833	2011
253.937	2058.33
256.041	2056.33
258.144	2049
260.248	2033
262.349	2056.33
264.452	2031.67
266.552	2051.67
268.652	2047
270.751	2045.67
272.849	2109.67
274.948	2073
277.045	2080.33
279.142	2105
281.238	2125.67
283.334	2111.67
285.429	2154.33
287.523	2174.33
289.617	2210.33
291.71	2231.67
293.802	2296.33
295.894	2351
297.984	2441.67
300.074	2481
302.165	2525.67
304.253	2516.33
306.341	2470.33
308.429	2478.33
310.516	2407
312.602	2341.67
314.688	2329.67
316.773	2232.33
318.858	2227
320.941	2211.67
323.024	2200.33
325.106	2187
327.188	2189.67
329.27	2181.67
331.35	2185.67
333.429	2205
335.509	2245
337.588	2326.33
339.665	2434.33
341.742	2529.67
343.819	2635
345.895	2652.33
347.97	2585.67
350.045	2531.67
352.119	2491
354.191	2380.33
356.264	2298.33
358.337	2219
360.407	2226.33
362.479	2169
364.548	2175
366.617	2161.67
368.687	2111
370.755	2165
372.822	2141
374.888	2112.33
376.954	2132.33
379.02	2147
381.085	2163.67
383.149	2168.33
385.213	2158.33
387.276	2214.33
389.338	2211.67
391.4	2177
393.46	2190.33
395.521	2201.67
397.58	2219
399.64	2184.33
401.698	2207.67
403.756	2176.33
405.813	2171
407.869	2198.33
409.925	2173
411.98	2185
414.034	2187.67
416.089	2160.33
418.142	2160.33
420.194	2155
422.246	2155
424.298	2196.33
426.348	2154.33
428.397	2173
430.448	2139
432.496	2147
434.543	2175
436.591	2123
438.639	2137.67
440.685	2134.33
442.73	2139
444.774	2124.33
446.818	2101
448.862	2135.67
450.905	2108.33
452.947	2092.33
454.989	2114.33
457.029	2103
459.07	2073
461.11	2064.33
463.15	2057
465.188	2058.33
467.225	2059.67
469.262	2043.67
471.299	2048.33
473.335	2062.33
475.37	2082.33
477.405	2069.67
479.439	2097.67
481.471	2060.33
483.504	2047
485.536	2055
487.568	2089
489.598	2079.67
491.629	2066.33
493.658	2083
495.686	2083.67
497.714	2077
499.742	2115.67
501.769	2122.33
503.795	2114.33
505.821	2139
507.846	2155
509.871	2203
511.894	2211
513.917	2284.33
515.94	2318.33
517.961	2343
519.982	2363
522.003	2394.33
524.023	2339
526.042	2385.67
528.06	2387.67
530.078	2441.67
532.096	2489.67
534.113	2526.33
536.129	2689
538.145	2840.33
540.16	3106.33
542.173	3342.33
544.187	3519
546.2	3627.67
548.213	3613.67
550.224	3497.67
552.235	3303
554.245	3120.33
556.256	2917
558.265	2753
560.273	2610.33
562.281	2589
564.287	2495.67
566.294	2437.67
568.3	2432.33
570.305	2357
572.31	2364.33
574.315	2355
576.318	2317.67
578.32	2335
580.323	2281.67
582.324	2291.67
584.325	2299.67
586.325	2329.67
588.325	2359
590.324	2345.67
592.323	2373.67
594.319	2475
596.317	2574.33
598.314	2659
600.309	2793.67
602.305	2899.67
604.299	2941.67
606.294	2937
608.287	2858.33
610.279	2819.67
612.271	2661.67
614.263	2610.33
616.253	2533
618.244	2455.67
620.234	2434.33
622.223	2416.33
624.21	2406.33
626.198	2395.67
628.185	2413
630.172	2413.67
632.157	2407.67
634.142	2373.67
636.128	2415.67
638.111	2429
640.095	2449
642.077	2447
644.059	2450.33
646.041	2428.33
648.021	2440.33
650.001	2443.67
651.981	2437.67
653.959	2487
655.939	2497
657.916	2517.67
659.894	2530.33
661.87	2551
663.845	2548.33
665.82	2573
667.795	2597
669.769	2617.67
671.742	2671.67
673.715	2670.33
675.688	2695
677.658	2645
679.63	2682.33
681.599	2725
683.569	2719
685.538	2720.33
687.506	2712.33
689.473	2671
691.442	2721
693.408	2727.67
695.374	2676.33
697.338	2670.33
699.303	2685.67
701.267	2655
703.231	2646.33
705.193	2626.33
707.156	2679.67
709.117	2605
711.078	2601.67
713.038	2549
714.998	2534.33
716.957	2532.33
718.915	2511
720.873	2510.33
722.83	2497
724.787	2515
726.743	2527
728.698	2478.33
730.653	2482.33
732.606	2482.33
734.561	2487.67
736.513	2459.67
738.465	2487.67
740.416	2439.67
742.368	2465.67
744.319	2422.33
746.267	2441
748.217	2383
750.165	2360.33
752.114	2360.33
754.06	2368.33
756.007	2383.67
757.953	2347
759.899	2359.67
761.844	2327
763.787	2325.67
765.732	2307.67
767.675	2283.67
769.617	2359
771.558	2359.67
773.499	2323
775.44	2342.33
777.381	2347.67
779.319	2364.33
781.258	2327.67
783.196	2361.67
785.134	2335
787.071	2383
789.007	2360.33
790.942	2415
792.877	2407
794.812	2369.67
796.746	2451
798.679	2428.33
800.611	2445.67
802.543	2453
804.475	2466.33
806.405	2436.33
808.335	2479.67
810.265	2478.33
812.194	2500.33
814.122	2483
816.05	2517
817.977	2467
819.903	2513.67
821.83	2528.33
823.754	2521
825.679	2508.33
827.604	2508.33
829.526	2478.33
831.449	2455
833.372	2428.33
835.293	2426.33
837.214	2404.33
839.134	2346.33
841.054	2377.67
842.973	2310.33
844.892	2317.67
846.81	2298.33
848.727	2239.67
850.644	2265
852.559	2243.67
854.476	2232.33
856.39	2194.33
858.304	2189.67
860.218	2179
862.131	2156.33
864.043	2135.67
865.955	2143
867.867	2131
869.778	2104.33
871.687	2127.67
873.597	2119
875.505	2129.67
877.414	2096.33
879.321	2109.67
881.228	2034.33
883.134	2075
885.04	2075
886.945	2172.33
888.85	2049
890.754	2036.33
892.658	2020.33
894.56	2035.67
896.463	1996.33
898.364	2048.33
900.266	2029.67
902.166	2009.67
904.065	2005.67
905.964	2036.33
907.863	2014.33
909.761	2013
911.658	1992.33
913.555	1995
915.452	1989.67
917.347	2007.67
919.242	1986.33
921.136	2017.67
923.029	2002.33
924.924	2005
926.816	1998.33
928.708	1991
930.599	2001
932.49	2001
934.379	2009.67
936.269	1991
938.158	2013
940.046	1995
941.934	1977.67
943.821	1994.33
945.707	1993
947.594	1987.67
949.479	2000.33
951.364	2019
953.248	1997.67
955.132	1959.67
957.014	2012.33
958.897	2015
960.779	1995
962.66	2014.33
964.54	2047
966.421	2032.33
968.3	2009
970.178	2017
972.056	2025.67
973.934	2025
975.811	2033
977.688	2011
979.563	2073
981.438	2026.33
983.314	2060.33
985.187	2093
987.06	2045.67
988.934	2063.67
990.806	2067.67
992.677	2007.67
994.548	2047
996.419	2029
998.288	2041
1000.16	2035.67
1002.03	2032.33
1003.89	2071
1005.76	2127
1007.63	2088.33
1009.49	2133.67
1011.36	2112.33
1013.23	2055
1015.09	2057.67
1016.95	2006.33
1018.82	2018.33
1020.68	1967
1022.54	1990.33
1024.4	1962.33
1026.26	1987.67
1028.12	2002.33
1029.98	2000.33
1031.84	1964.33
1033.7	2002.33
1035.56	1979.67
1037.42	1999.67
1039.27	2025
1041.13	2038.33
1042.99	2020.33
1044.84	2007
1046.7	2044.33
1048.55	2003.67
1050.4	1996.33
1052.26	1977
1054.11	1992.33
1055.96	2034.33
1057.81	2003
1059.66	2041.67
1061.51	2037.67
1063.36	2033
1065.21	2031
1067.06	2015
1068.9	2033
1070.75	1999.67
1072.6	2067.67
1074.44	2077
1076.29	2023
1078.13	2053.67
1079.97	2120.33
1081.82	2061
1083.66	2039
1085.5	2058.33
1087.34	2098.33
1089.18	2087
1091.03	2061
1092.86	2086.33
1094.7	2105.67
1096.54	2111
1098.38	2097
1100.22	2108.33
1102.05	2146.33
1103.89	2142.33
1105.73	2115
1107.56	2129.67
1109.39	2149
1111.23	2160.33
1113.06	2177.67
1114.9	2145.67
1116.73	2178.33
1118.56	2167.67
1120.39	2181
1122.22	2160.33
1124.05	2216.33
1125.88	2228.33
1127.71	2202.33
1129.54	2183
1131.36	2237.67
1133.19	2199.67
1135.02	2212.33
1136.84	2228.33
1138.67	2233.67
1140.49	2239.67
1142.32	2243
1144.14	2214.33
1145.96	2230.33
1147.78	2285.67
1149.61	2257.67
1151.43	2256.33
1153.25	2296.33
1155.07	2262.33
1156.89	2241.67
1158.7	2270.33
1160.52	2301.67
1162.34	2290.33
1164.16	2287.67
1165.97	2290.33
1167.79	2311.67
1169.6	2313.67
1171.42	2287
1173.23	2313.67
1175.05	2300.33
1176.86	2297.67
1178.67	2342.33
1180.48	2320.33
1182.3	2345
1184.11	2347.67
1185.92	2389
1187.72	2375.67
1189.53	2351.67
1191.34	2344.33
1193.15	2377
1194.96	2402.33
1196.76	2425
1198.57	2423.67
1200.37	2423.67
1202.18	2407
1203.98	2411.67
1205.79	2429
1207.59	2473.67
1209.39	2487.67
1211.19	2449
1213	2495
1214.8	2487.67
1216.6	2519
1218.4	2515
1220.2	2523.67
1221.99	2559
1223.79	2541.67
1225.59	2527
1227.39	2562.33
1229.18	2590.33
1230.98	2597.67
1232.77	2573
1234.57	2637.67
1236.36	2647
1238.15	2653
1239.95	2610.33
1241.74	2670.33
1243.53	2639
1245.32	2645.67
1247.11	2697
1248.9	2708.33
1250.69	2713.67
1252.48	2687.67
1254.27	2682.33
1256.06	2754.33
1257.84	2725.67
1259.63	2719
1261.42	2757
1263.2	2771
1264.99	2790.33
1266.77	2795
1268.55	2815.67
1270.34	2797.67
1272.12	2793
1273.9	2824.33
1275.68	2834.33
1277.46	2847
1279.24	2885
1281.02	2848.33
1282.8	2835.67
1284.58	2882.33
1286.36	2877.67
1288.14	2911
1289.91	2931
1291.69	2942.33
1293.46	2923.67
1295.24	2919
1297.01	2947.67
1298.79	2980.33
1300.56	2953.67
1302.33	2995.67
1304.11	3009
1305.88	2957.67
1307.65	3050.33
1309.42	3009.67
1311.19	3002.33
1312.96	3040.33
1314.73	3040.33
1316.49	3086.33
1318.26	3088.33
1320.03	3072.33
1321.8	3100.33
1323.56	3064.33
1325.33	3117.67
1327.09	3104.33
1328.86	3080.33
1330.62	3132.33
1332.38	3101.67
1334.15	3133.67
1335.91	3075
1337.67	3134.33
1339.43	3172.33
1341.19	3187.67
1342.95	3171
1344.71	3169.67
1346.47	3177.67
1348.23	3213
1349.98	3178.33
1351.74	3203.67
1353.5	3227
1355.25	3181.67
1357.01	3169.67
1358.76	3141
1360.52	3251.67
1362.27	3173.67
1364.02	3231
1365.77	3211
1367.53	3241.67
1369.28	3262.33
1371.03	3164.33
1372.78	3237
1374.53	3242.33
1376.28	3196.33
1378.03	3224.33
1379.77	3207
1381.52	3239
1383.27	3207.67
1385.01	3213
1386.76	3243
1388.51	3219
1390.25	3183
1391.99	3231.67
1393.74	3174.33
1395.48	3171.67
1397.22	3199
1398.96	3221.67
1400.7	3208.33
1402.44	3206.33
1404.19	3169.67
1405.92	3189.67
1407.66	3139.67
1409.4	3163.67
1411.14	3186.33
1412.88	3187
1414.61	3169
1416.35	3183.67
1418.09	3201
1419.82	3188.33
1421.56	3187
1423.29	3131
1425.02	3137.67
1426.76	3092.33
1428.49	3121
1430.22	3098.33
1431.95	3123
1433.68	3175.67
1435.41	3149.67
1437.14	3119.67
1438.87	3143.67
1440.6	3075.67
1442.33	3115.67
1444.05	3123.67
1445.78	3083
1447.51	3107.67
1449.23	3101
1450.96	3083
1452.68	3066.33
1454.4	3145.67
1456.13	3089
1457.85	3099
1459.57	3092.33
1461.29	3116.33
1463.02	3087.67
1464.74	3073.67
1466.46	3086.33
1468.18	3118.33
1469.89	3127
1471.61	3099
1473.33	3097
1475.05	3075.67
1476.76	3094.33
1478.48	3077.67
1480.2	3073
1481.91	3103.67
1483.63	3113.67
1485.34	3102.33
1487.05	3116.33
1488.77	3062.33
1490.48	3146.33
1492.19	3104.33
1493.9	3171
1495.61	3114.33
1497.32	3097.67
1499.03	3085
1500.74	3155.67
1502.45	3142.33
1504.16	3129
1505.86	3122.33
1507.57	3141
1509.28	3147.67
1510.98	3147.67
1512.69	3139.67
1514.39	3145.67
1516.1	3138.33
1517.8	3172.33
1519.5	3187
1521.21	3171
1522.91	3211
1524.61	3191
1526.31	3201.67
1528.01	3187.67
1529.71	3224.33
1531.41	3187.67
1533.11	3211.67
1534.8	3227.67
1536.5	3197
1538.2	3258.33
1539.9	3223.67
1541.59	3249.67
1543.29	3259
1544.98	3251
1546.68	3245
1548.37	3247
1550.06	3324.33
1551.76	3232.33
1553.45	3311.67
1555.14	3311.67
1556.83	3284.33
1558.52	3308.33
1560.21	3301.67
1561.9	3342.33
1563.59	3337.67
1565.28	3349
1566.96	3309
1568.65	3331.67
1570.34	3346.33
1572.02	3355
1573.71	3359.67
1575.39	3357.67
1577.08	3358.33
1578.76	3370.33
1580.44	3407.67
1582.13	3405
1583.81	3369.67
1585.49	3405.67
1587.17	3416.33
1588.85	3414.33
1590.53	3464.33
1592.21	3382.33
1593.89	3403.67
1595.57	3467
1597.25	3436.33
1598.92	3417
1600.6	3407.67
1602.28	3378.33
1603.95	3442.33
1605.63	3462.33
1607.3	3435
1608.98	3445
1610.65	3445
1612.32	3439
1614	3401.67
1615.67	3418.33
1617.34	3448.33
1619.01	3431.67
1620.68	3378.33
1622.35	3365.67
1624.02	3401.67
1625.69	3363.67
1627.36	3402.33
1629.02	3385
1630.69	3401
1632.36	3371.67
1634.02	3357
1635.69	3297.67
1637.35	3354.33
1639.02	3314.33
1640.68	3317
1642.34	3323
1644.01	3307.67
1645.67	3301
1647.33	3290.33
1648.99	3374.33
1650.65	3263
1652.31	3309.67
1653.97	3289
1655.63	3281.67
1657.29	3272.33
1658.95	3312.33
1660.6	3256.33
1662.26	3301
1663.92	3282.33
1665.57	3266.33
1667.23	3247.67
1668.88	3309.67
1670.54	3244.33
1672.19	3293.67
1673.84	3298.33
1675.5	3235
1677.15	3319.67
1678.8	3283.67
1680.45	3308.33
1682.1	3284.33
1683.75	3249
1685.4	3322.33
1687.05	3289
1688.7	3266.33
1690.34	3303.67
1691.99	3283.67
1693.64	3310.33
1695.28	3258.33
1696.93	3323
1698.57	3292.33
1700.22	3261.67
1701.86	3289.67
1703.51	3315.67
1705.15	3281
1706.79	3257
1708.43	3325.67
1710.08	3283.67
1711.72	3255
1713.36	3306.33
1715	3315.67
1716.64	3286.33
1718.27	3291
1719.91	3291.67
1721.55	3299.67
1723.19	3306.33
1724.82	3310.33
1726.46	3309
1728.09	3319
1729.73	3330.33
1731.36	3299
1733	3326.33
1734.63	3339.67
1736.26	3318.33
1737.9	3323
1739.53	3313.67
1741.16	3357
1742.79	3328.33
1744.42	3307.67
1746.05	3335
1747.68	3305.67
1749.31	3301
1750.93	3281.67
1752.56	3327
1754.19	3317.67
1755.82	3384.33
1757.44	3309
1759.07	3373
1760.69	3361
1762.32	3340.33
1763.94	3388.33
1765.56	3399.67
1767.19	3407.67
1768.81	3430.33
1770.43	3377
1772.05	3403.67
1773.67	3410.33
1775.29	3391
1776.91	3435
1778.53	3401.67
1780.15	3387
1781.77	3393
1783.39	3469.67
1785	3435
1786.62	3475
1788.23	3468.33
1789.85	3439
1791.46	3476.33
1793.08	3460.33
1794.69	3489
1796.31	3467
1797.92	3474.33
1799.53	3437.67
1801.14	3505
1802.75	3482.33
1804.36	3509.67
1805.98	3531
1807.58	3473
1809.19	3531
1810.8	3466.33
1812.41	3507.67
1814.02	3529
1815.62	3528.33
1817.23	3473
1818.84	3492.33
1820.44	3529.67
1822.05	3549
1823.65	3523.67
1825.26	3507
1826.86	3509
1828.46	3592.33
1830.06	3525
1831.67	3552.33
1833.27	3553
1834.87	3505.67
1836.47	3558.33
1838.07	3545.67
1839.67	3541.67
1841.27	3570.33
1842.86	3552.33
1844.46	3582.33
1846.06	3561.67
1847.66	3589.67
1849.25	3575
1850.85	3589.67
1852.44	3573
1854.04	3593
1855.63	3569
1857.22	3594.33
1858.82	3586.33
1860.41	3632.33
1862	3620.33
1863.59	3633.67
1865.18	3585.67
1866.77	3607.67
1868.36	3645.67
1869.95	3632.33
1871.54	3661
1873.13	3641.67
1874.72	3647.67
1876.3	3734.33
1877.89	3707
1879.48	3659
1881.06	3743
1882.65	3710.33
1884.23	3705.67
1885.82	3757.67
1887.4	3687.67
1888.98	3735
1890.57	3737
1892.15	3753.67
1893.73	3734.33
1895.31	3734.33
1896.89	3720.33
1898.47	3761
