#Acq. time (s)=	60
#Accumulations=	3
#Range (cm-¹)=	60...1900
#Windows=	1
#Auto scanning=	Off
#Autofocus=	Off
#AutoExposure=	Off
#Spike filter=	Multiple accum.
#Delay time (s)=	0
#Binning=	1
#Readout mode=	Signal
#DeNoise=	Off
#ICS correction=	Off
#Dark correction=	Off
#Inst. Process=	Off
#Detector Gain=	Best Dynamic Range
#Detector ADC=	45 kHz       
#Detector temperature (°C)=	-60.1
#Instrument=	XploRA Plus
#Detector=	Syncerity OE
#Objective=	x10_VIS
#Grating=	1200 (750nm)
#Filter=	10%
#Laser=	638nm_Edge
#Slit (µm)=	200 
#Hole (µm)=	300 
#Temperature=	0
#StageXY=	75x50mm Scan+
#StageZ=	Z motor
#X (µm)=	0
#Y (µm)=	0
#Z (µm)=	425.1
#Full time(mm:ss)=	3:10
#Project=	
#Sample=	Probe5-Punkt3
#Site=	
#Title=	C1Pulver
#Remark=	
#Date=	03.06.2025 12:24
#Acquired=	03.06.2025 12:24:46
#AxisType[0]=Intens
#AxisUnit[0]=Cnt
#AxisType[1]=Spectr
#AxisUnit[1]=1/cm
61.8486	1470
64.0134	1400
66.1762	1417
68.3399	1450
70.5014	1381
72.6624	1396
74.8243	1440
76.9841	1429
79.1432	1401
81.3018	1352
83.4598	1325
85.6172	1351
87.774	1382
89.9302	1344
92.0858	1311
94.2408	1307
96.3937	1317
98.5476	1356
100.701	1339
102.852	1315
105.004	1328
107.154	1351
109.305	1339
111.453	1317
113.602	1347
115.751	1309
117.898	1316
120.044	1309
122.19	1342
124.335	1306
126.48	1360
128.624	1364
130.767	1323
132.91	1394
135.052	1371
137.193	1387
139.334	1361
141.474	1363
143.613	1393
145.752	1397
147.889	1382
150.027	1390
152.163	1420
154.299	1450
156.435	1442
158.569	1470
160.703	1459
162.836	1453
164.969	1479
167.101	1499
169.232	1491
171.363	1475
173.493	1484
175.621	1515
177.75	1515
179.879	1497
182.005	1507
184.132	1493
186.258	1493
188.384	1491
190.508	1478
192.631	1492
194.754	1482
196.878	1514
199	1453
201.121	1483
203.241	1457
205.361	1500
207.481	1470
209.6	1486
211.716	1458
213.834	1496
215.951	1427
218.066	1459
220.182	1443
222.298	1465
224.411	1429
226.524	1472
228.637	1482
230.749	1505
232.86	1503
234.97	1538
237.08	1531
239.189	1523
241.298	1516
243.406	1555
245.514	1543
247.621	1544
249.727	1563
251.833	1540
253.937	1562
256.041	1573
258.144	1572
260.248	1531
262.349	1555
264.452	1559
266.552	1546
268.652	1577
270.751	1543
272.849	1571
274.948	1595
277.045	1600
279.142	1662
281.238	1631
283.334	1673
285.429	1740
287.523	1748
289.617	1814
291.71	1827
293.802	1863
295.894	1883
297.984	1901
300.074	1913
302.165	1890
304.253	1845
306.341	1848
308.429	1830
310.516	1777
312.602	1725
314.688	1725
316.773	1721
318.858	1664
320.941	1667
323.024	1727
325.106	1679
327.188	1661
329.27	1709
331.35	1703
333.429	1649
335.509	1732
337.588	1743
339.665	1781
341.742	1774
343.819	1799
345.895	1827
347.97	1803
350.045	1769
352.119	1797
354.191	1770
356.264	1761
358.337	1773
360.407	1777
362.479	1809
364.548	1785
366.617	1834
368.687	1825
370.755	1843
372.822	1870
374.888	1799
376.954	1845
379.02	1829
381.085	1827
383.149	1793
385.213	1791
387.276	1745
389.338	1779
391.4	1754
393.46	1727
395.521	1748
397.58	1712
399.64	1665
401.698	1713
403.756	1719
405.813	1701
407.869	1729
409.925	1692
411.98	1720
414.034	1698
416.089	1698
418.142	1613
420.194	1635
422.246	1601
424.298	1623
426.348	1658
428.397	1673
430.448	1674
432.496	1666
434.543	1681
436.591	1708
438.639	1632
440.685	1667
442.73	1674
444.774	1650
446.818	1632
448.862	1627
450.905	1601
452.947	1630
454.989	1597
457.029	1623
459.07	1683
461.11	1637
463.15	1703
465.188	1705
467.225	1776
469.262	1787
471.299	1818
473.335	1835
475.37	1870
477.405	1867
479.439	1897
481.471	1958
483.504	1984
485.536	2005
487.568	2003
489.598	2043
491.629	2058
493.658	2100
495.686	2125
497.714	2161
499.742	2207
501.769	2337
503.795	2344
505.821	2445
507.846	2529
509.871	2610
511.894	2723
513.917	2773
515.94	2916
517.961	2944
519.982	3035
522.003	3100
524.023	3103
526.042	3172
528.06	3215
530.078	3180
532.096	3122
534.113	3080
536.129	3052
538.145	2917
540.16	2803
542.173	2673
544.187	2539
546.2	2392
548.213	2249
550.224	2129
552.235	2049
554.245	1959
556.256	1879
558.265	1887
560.273	1795
562.281	1838
564.287	1817
566.294	1783
568.3	1814
570.305	1779
572.31	1743
574.315	1754
576.318	1729
578.32	1733
580.323	1772
582.324	1789
584.325	1779
586.325	1843
588.325	1874
590.324	1933
592.323	2031
594.319	2257
596.317	2384
598.314	2616
600.309	2767
602.305	2994
604.299	3056
606.294	3037
608.287	3059
610.279	3174
612.271	3213
614.263	3327
616.253	3423
618.244	3510
620.234	3667
622.223	3804
624.21	3903
626.198	4082
628.185	4187
630.172	4288
632.157	4371
634.142	4541
636.128	4590
638.111	4663
640.095	4749
642.077	4886
644.059	4847
646.041	5037
648.021	5060
650.001	5182
651.981	5321
653.959	5567
655.939	5759
657.916	5987
659.894	6312
661.87	6585
663.845	6829
665.82	7154
667.795	7376
669.769	7522
671.742	7568
673.715	7564
675.688	7429
677.658	7251
679.63	7064
681.599	6641
683.569	6304
685.538	5933
687.506	5507
689.473	5153
691.442	4789
693.408	4437
695.374	4125
697.338	3844
699.303	3592
701.267	3325
703.231	3073
705.193	2875
707.156	2691
709.117	2536
711.078	2405
713.038	2309
714.998	2137
716.957	2078
718.915	1935
720.873	1857
722.83	1856
724.787	1763
726.743	1694
728.698	1639
730.653	1624
732.606	1566
734.561	1513
736.513	1481
738.465	1496
740.416	1434
742.368	1417
744.319	1369
746.267	1363
748.217	1331
750.165	1349
752.114	1318
754.06	1325
756.007	1258
757.953	1262
759.899	1260
761.844	1266
763.787	1265
765.732	1250
767.675	1267
769.617	1211
771.558	1209
773.499	1229
775.44	1220
777.381	1245
779.319	1220
781.258	1249
783.196	1230
785.134	1240
787.071	1223
789.007	1213
790.942	1240
792.877	1259
794.812	1231
796.746	1211
798.679	1231
800.611	1274
802.543	1268
804.475	1294
806.405	1248
808.335	1271
810.265	1268
812.194	1273
814.122	1293
816.05	1297
817.977	1346
819.903	1285
821.83	1319
823.754	1324
825.679	1328
827.604	1305
829.526	1369
831.449	1315
833.372	1338
835.293	1295
837.214	1291
839.134	1313
841.054	1328
842.973	1301
844.892	1320
846.81	1266
848.727	1287
850.644	1293
852.559	1262
854.476	1271
856.39	1235
858.304	1257
860.218	1242
862.131	1220
864.043	1209
865.955	1241
867.867	1255
869.778	1222
871.687	1235
873.597	1244
875.505	1233
877.414	1169
879.321	1157
881.228	1133
883.134	1128
885.04	1135
886.945	1176
888.85	1112
890.754	1121
892.658	1096
894.56	1079
896.463	1083
898.364	1078
900.266	1059
902.166	1073
904.065	1047
905.964	1065
907.863	1049
909.761	1027
911.658	1065
913.555	1056
915.452	1030
917.347	1011
919.242	999
921.136	1029
923.029	1019
924.924	1007
926.816	1023
928.708	1033
930.599	1022
932.49	1022
934.379	1019
936.269	1029
938.158	1036
940.046	1021
941.934	1053
943.821	1017
945.707	1029
947.594	1015
949.479	1032
951.364	1005
953.248	989
955.132	1016
957.014	953
958.897	995
960.779	998
962.66	1015
964.54	1031
966.421	985
968.3	993
970.178	977
972.056	990
973.934	985
975.811	969
977.688	973
979.563	970
981.438	1005
983.314	981
985.187	991
987.06	972
988.934	979
990.806	955
992.677	982
994.548	1000
996.419	972
998.288	987
1000.16	971
1002.03	987
1003.89	969
1005.76	986
1007.63	982
1009.49	973
1011.36	990
1013.23	974
1015.09	961
1016.95	983
1018.82	977
1020.68	971
1022.54	983
1024.4	988
1026.26	959
1028.12	966
1029.98	975
1031.84	955
1033.7	969
1035.56	983
1037.42	973
1039.27	955
1041.13	998
1042.99	961
1044.84	989
1046.7	975
1048.55	979
1050.4	985
1052.26	948
1054.11	979
1055.96	939
1057.81	979
1059.66	963
1061.51	960
1063.36	979
1065.21	959
1067.06	955
1068.9	955
1070.75	953
1072.6	974
1074.44	963
1076.29	948
1078.13	967
1079.97	980
1081.82	934
1083.66	965
1085.5	953
1087.34	955
1089.18	967
1091.03	963
1092.86	985
1094.7	960
1096.54	947
1098.38	957
1100.22	965
1102.05	957
1103.89	954
1105.73	963
1107.56	943
1109.39	967
1111.23	963
1113.06	960
1114.9	959
1116.73	949
1118.56	941
1120.39	960
1122.22	970
1124.05	983
1125.88	963
1127.71	983
1129.54	977
1131.36	956
1133.19	947
1135.02	981
1136.84	987
1138.67	993
1140.49	969
1142.32	953
1144.14	976
1145.96	949
1147.78	984
1149.61	989
1151.43	959
1153.25	967
1155.07	949
1156.89	977
1158.7	964
1160.52	979
1162.34	965
1164.16	959
1165.97	969
1167.79	989
1169.6	988
1171.42	964
1173.23	975
1175.05	974
1176.86	967
1178.67	994
1180.48	977
1182.3	979
1184.11	976
1185.92	969
1187.72	985
1189.53	957
1191.34	973
1193.15	1001
1194.96	994
1196.76	967
1198.57	1026
1200.37	1011
1202.18	984
1203.98	1010
1205.79	1002
1207.59	1017
1209.39	1016
1211.19	1028
1213	1030
1214.8	1039
1216.6	1037
1218.4	1007
1220.2	1048
1221.99	1047
1223.79	1063
1225.59	1027
1227.39	1011
1229.18	1075
1230.98	1073
1232.77	1057
1234.57	1073
1236.36	1061
1238.15	1033
1239.95	1062
1241.74	1059
1243.53	1067
1245.32	1093
1247.11	1031
1248.9	1110
1250.69	1103
1252.48	1080
1254.27	1063
1256.06	1087
1257.84	1115
1259.63	1093
1261.42	1101
1263.2	1125
1264.99	1115
1266.77	1139
1268.55	1097
1270.34	1157
1272.12	1120
1273.9	1161
1275.68	1162
1277.46	1131
1279.24	1152
1281.02	1162
1282.8	1176
1284.58	1183
1286.36	1183
1288.14	1187
1289.91	1191
1291.69	1240
1293.46	1240
1295.24	1195
1297.01	1254
1298.79	1255
1300.56	1265
1302.33	1246
1304.11	1263
1305.88	1325
1307.65	1317
1309.42	1340
1311.19	1327
1312.96	1369
1314.73	1367
1316.49	1376
1318.26	1390
1320.03	1421
1321.8	1442
1323.56	1429
1325.33	1439
1327.09	1447
1328.86	1487
1330.62	1473
1332.38	1483
1334.15	1493
1335.91	1551
1337.67	1525
1339.43	1555
1341.19	1529
1342.95	1541
1344.71	1577
1346.47	1591
1348.23	1599
1349.98	1600
1351.74	1603
1353.5	1605
1355.25	1623
1357.01	1605
1358.76	1601
1360.52	1612
1362.27	1623
1364.02	1605
1365.77	1575
1367.53	1589
1369.28	1575
1371.03	1567
1372.78	1499
1374.53	1549
1376.28	1529
1378.03	1514
1379.77	1482
1381.52	1480
1383.27	1444
1385.01	1469
1386.76	1393
1388.51	1395
1390.25	1378
1391.99	1378
1393.74	1351
1395.48	1332
1397.22	1304
1398.96	1315
1400.7	1287
1402.44	1296
1404.19	1254
1405.92	1233
1407.66	1249
1409.4	1195
1411.14	1212
1412.88	1195
1414.61	1161
1416.35	1113
1418.09	1172
1419.82	1130
1421.56	1111
1423.29	1104
1425.02	1094
1426.76	1076
1428.49	1063
1430.22	1053
1431.95	1071
1433.68	1039
1435.41	1042
1437.14	1023
1438.87	1042
1440.6	1019
1442.33	1013
1444.05	1051
1445.78	1016
1447.51	1007
1449.23	994
1450.96	1001
1452.68	996
1454.4	997
1456.13	1022
1457.85	972
1459.57	969
1461.29	980
1463.02	978
1464.74	963
1466.46	941
1468.18	1017
1469.89	923
1471.61	980
1473.33	988
1475.05	966
1476.76	998
1478.48	933
1480.2	973
1481.91	988
1483.63	959
1485.34	971
1487.05	977
1488.77	981
1490.48	973
1492.19	961
1493.9	957
1495.61	984
1497.32	985
1499.03	978
1500.74	949
1502.45	1009
1504.16	976
1505.86	949
1507.57	971
1509.28	989
1510.98	955
1512.69	989
1514.39	951
1516.1	974
1517.8	980
1519.5	973
1521.21	923
1522.91	977
1524.61	987
1526.31	963
1528.01	957
1529.71	1000
1531.41	975
1533.11	959
1534.8	975
1536.5	967
1538.2	959
1539.9	971
1541.59	989
1543.29	1011
1544.98	965
1546.68	1006
1548.37	999
1550.06	989
1551.76	1036
1553.45	1004
1555.14	1001
1556.83	1011
1558.52	1005
1560.21	1000
1561.9	1001
1563.59	983
1565.28	1007
1566.96	1012
1568.65	1003
1570.34	1017
1572.02	977
1573.71	1019
1575.39	991
1577.08	1001
1578.76	1012
1580.44	1006
1582.13	971
1583.81	1010
1585.49	995
1587.17	991
1588.85	1031
1590.53	1023
1592.21	1006
1593.89	1010
1595.57	999
1597.25	1005
1598.92	1021
1600.6	1035
1602.28	1009
1603.95	999
1605.63	1007
1607.3	1009
1608.98	989
1610.65	1025
1612.32	1002
1614	1041
1615.67	1038
1617.34	1027
1619.01	1026
1620.68	1031
1622.35	1015
1624.02	1022
1625.69	1018
1627.36	1018
1629.02	1037
1630.69	1022
1632.36	999
1634.02	1051
1635.69	1013
1637.35	1005
1639.02	1009
1640.68	1023
1642.34	1023
1644.01	1020
1645.67	1055
1647.33	1046
1648.99	1049
1650.65	1031
1652.31	1043
1653.97	1046
1655.63	1061
1657.29	1039
1658.95	1055
1660.6	1043
1662.26	1055
1663.92	1056
1665.57	1060
1667.23	1047
1668.88	1059
1670.54	1047
1672.19	1039
1673.84	1067
1675.5	1045
1677.15	1079
1678.8	1033
1680.45	1064
1682.1	1061
1683.75	1057
1685.4	1119
1687.05	1088
1688.7	1069
1690.34	1065
1691.99	1060
1693.64	1061
1695.28	1083
1696.93	1091
1698.57	1092
1700.22	1086
1701.86	1096
1703.51	1067
1705.15	1091
1706.79	1100
1708.43	1093
1710.08	1085
1711.72	1104
1713.36	1088
1715	1094
1716.64	1087
1718.27	1090
1719.91	1093
1721.55	1075
1723.19	1099
1724.82	1031
1726.46	1105
1728.09	1077
1729.73	1065
1731.36	1090
1733	1071
1734.63	1111
1736.26	1099
1737.9	1091
1739.53	1087
1741.16	1090
1742.79	1085
1744.42	1113
1746.05	1119
1747.68	1083
1749.31	1104
1750.93	1097
1752.56	1120
1754.19	1097
1755.82	1105
1757.44	1085
1759.07	1116
1760.69	1103
1762.32	1122
1763.94	1119
1765.56	1110
1767.19	1093
1768.81	1129
1770.43	1131
1772.05	1137
1773.67	1134
1775.29	1143
1776.91	1165
1778.53	1111
1780.15	1147
1781.77	1137
1783.39	1144
1785	1101
1786.62	1156
1788.23	1156
1789.85	1129
1791.46	1162
1793.08	1131
1794.69	1174
1796.31	1145
1797.92	1165
1799.53	1156
1801.14	1183
1802.75	1167
1804.36	1165
1805.98	1145
1807.58	1157
1809.19	1183
1810.8	1200
1812.41	1171
1814.02	1165
1815.62	1177
1817.23	1191
1818.84	1173
1820.44	1183
1822.05	1175
1823.65	1149
1825.26	1181
1826.86	1151
1828.46	1166
1830.06	1215
1831.67	1187
1833.27	1219
1834.87	1216
1836.47	1159
1838.07	1172
1839.67	1205
1841.27	1202
1842.86	1166
1844.46	1219
1846.06	1199
1847.66	1207
1849.25	1202
1850.85	1204
1852.44	1207
1854.04	1193
1855.63	1209
1857.22	1214
1858.82	1219
1860.41	1203
1862	1218
1863.59	1226
1865.18	1213
1866.77	1216
1868.36	1235
1869.95	1226
1871.54	1232
1873.13	1221
1874.72	1215
1876.3	1227
1877.89	1259
1879.48	1243
1881.06	1217
1882.65	1211
1884.23	1247
1885.82	1223
1887.4	1236
1888.98	1231
1890.57	1255
1892.15	1244
1893.73	1255
1895.31	1249
1896.89	1265
1898.47	1267
