#Acq. time (s)=	90
#Accumulations=	4
#Range (cm-¹)=	60...1900
#Windows=	1
#Auto scanning=	Off
#Autofocus=	Off
#AutoExposure=	Off
#Spike filter=	Multiple accum.
#Delay time (s)=	0
#Binning=	1
#Readout mode=	Signal
#DeNoise=	Off
#ICS correction=	Off
#Dark correction=	Off
#Inst. Process=	Off
#Detector Gain=	Best Dynamic Range
#Detector ADC=	45 kHz       
#Detector temperature (°C)=	-60.1
#Instrument=	XploRA Plus
#Detector=	Syncerity OE
#Objective=	x50_VIS_LWD
#Grating=	1200 (750nm)
#Filter=	10%
#Laser=	638nm_Edge
#Slit (µm)=	200 
#Hole (µm)=	300 
#Temperature=	0
#StageXY=	75x50mm Scan+
#StageZ=	Z motor
#X (µm)=	0
#Y (µm)=	0
#Z (µm)=	-255
#Full time(mm:ss)=	6:10
#Project=	
#Sample=	Probe5-Punkt3
#Site=	
#Title=	638nm_50er_10
#Remark=	
#Date=	28.05.2025 11:09
#Acquired=	28.05.2025 11:09:27
#AxisType[0]=Intens
#AxisUnit[0]=Cnt
#AxisType[1]=Spectr
#AxisUnit[1]=1/cm
61.8486	30761.7
64.0134	30916.3
66.1762	30990.3
68.3399	31291
70.5014	31466.3
72.6624	31587
74.8243	31550.3
76.9841	31771
79.1432	31733.7
81.3018	31801.7
83.4598	31769.7
85.6172	31991.7
87.774	32173.7
89.9302	32147.7
92.0858	32109
94.2408	32462.3
96.3937	32529
98.5476	32485.7
100.701	32763
102.852	32605
105.004	32891.7
107.154	32880.3
109.305	32913.7
111.453	33018.3
113.602	33131
115.751	33319
117.898	33219
120.044	33567.7
122.19	33469.7
124.335	33629
126.48	33704.3
128.624	33869
130.767	34041.7
132.91	34108.3
135.052	34193
137.193	34213.7
139.334	34276.3
141.474	34378.3
143.613	34479.7
145.752	34603.7
147.889	34720.3
150.027	34920.3
152.163	34836.3
154.299	35044.3
156.435	35061
158.569	35115
160.703	35141.7
162.836	35361
164.969	35521.7
167.101	35674.3
169.232	35661
171.363	35726.3
173.493	35787.7
175.621	36102.3
177.75	35975.7
179.879	36082.3
182.005	36305.7
184.132	36339.7
186.258	36384.3
188.384	36550.3
190.508	36587
192.631	36819
194.754	36818.3
196.878	37067
199	37035
201.121	37256.3
203.241	37349
205.361	37589
207.481	37753
209.6	37564.3
211.716	37801
213.834	37867.7
215.951	37931.7
218.066	38059.7
220.182	38069
222.298	38049
224.411	38136.3
226.524	38252.3
228.637	38373.7
230.749	38447
232.86	38519.7
234.97	38611.7
237.08	38757.7
239.189	38991.7
241.298	39209
243.406	39431.7
245.514	39443.7
247.621	39576.3
249.727	39655
251.833	40027
253.937	39935.7
256.041	40308.3
258.144	40468.3
260.248	40425
262.349	40875
264.452	40857
266.552	41219.7
268.652	41418.3
270.751	41593
272.849	41884.3
274.948	41923
277.045	42002.3
279.142	42333
281.238	42191.7
283.334	42289
285.429	42415
287.523	42412.3
289.617	42323
291.71	42428.3
293.802	42461.7
295.894	42653.7
297.984	42463.7
300.074	42503.7
302.165	42567
304.253	42659.7
306.341	42834.3
308.429	42745.7
310.516	42627
312.602	42640.3
314.688	42605
316.773	42739.7
318.858	42525
320.941	42657.7
323.024	42526.3
325.106	42758.3
327.188	42616.3
329.27	42795.7
331.35	42827.7
333.429	42714.3
335.509	42911.7
337.588	42956.3
339.665	42945.7
341.742	43080.3
343.819	43290.3
345.895	43397.7
347.97	43398.3
350.045	43735
352.119	43727.7
354.191	43868.3
356.264	43986.3
358.337	44237.7
360.407	44213.7
362.479	44299.7
364.548	44403
366.617	44447
368.687	44640.3
370.755	44865
372.822	44753.7
374.888	44701.7
376.954	44815.7
379.02	45135.7
381.085	45123.7
383.149	44967.7
385.213	45024.3
387.276	45074.3
389.338	45234.3
391.4	45287
393.46	45293
395.521	45521.7
397.58	45444.3
399.64	45633.7
401.698	45576.3
403.756	45659.7
405.813	45687.7
407.869	45985.7
409.925	45752.3
411.98	45905.7
414.034	45992.3
416.089	45993
418.142	46283
420.194	46228.3
422.246	46413.7
424.298	46407.7
426.348	46738.3
428.397	46618.3
430.448	46783.7
432.496	47083.7
434.543	46871
436.591	46795
438.639	47034.3
440.685	47127.7
442.73	47052.3
444.774	47005.7
446.818	47203
448.862	47502.3
450.905	47319.7
452.947	47493
454.989	47715.7
457.029	47603
459.07	47718.3
461.11	47763
463.15	48123.7
465.188	48221.7
467.225	48169
469.262	48271
471.299	48475
473.335	48512.3
475.37	48581.7
477.405	48685.7
479.439	48942.3
481.471	48687.7
483.504	49013.7
485.536	49103
487.568	49061.7
489.598	49487.7
491.629	49359
493.658	49655
495.686	49967
497.714	50070.3
499.742	50105
501.769	50315.7
503.795	50371
505.821	50143.7
507.846	50381
509.871	50407.7
511.894	50546.3
513.917	50671.3
515.94	50759
517.961	50847.3
519.982	50876
522.003	50960.7
524.023	50898.7
526.042	50997.3
528.06	50938.7
530.078	50978.7
532.096	50996
534.113	51048
536.129	51101.3
538.145	51107.3
540.16	51081.3
542.173	51078.7
544.187	51213.3
546.2	51200
548.213	51282
550.224	51389.3
552.235	51399.3
554.245	51541.3
556.256	51549.3
558.265	51632
560.273	51864
562.281	51911.3
564.287	51993.3
566.294	52015.3
568.3	52108.7
570.305	52163.3
572.31	52382.7
574.315	52456.7
576.318	52478
578.32	52576
580.323	52840
582.324	52953.3
584.325	53030.7
586.325	53280.7
588.325	53358.7
590.324	53477.3
592.323	53693.3
594.319	53685.3
596.317	53733.3
598.314	53856.7
600.309	54042.7
602.305	54156
604.299	54204
606.294	54350
608.287	54396
610.279	54643.3
612.271	54762.7
614.263	54860
616.253	55070
618.244	55106.7
620.234	55095.3
622.223	55392.7
624.21	55447.3
626.198	55634
628.185	55664
630.172	55808.7
632.157	55796
634.142	55860
636.128	56102.7
638.111	56007.3
640.095	56011.3
642.077	56142
644.059	56182.7
646.041	55989.3
648.021	56153.3
650.001	56246.7
651.981	56186
653.959	56148
655.939	56178
657.916	56234
659.894	56070
661.87	56025.3
663.845	55924.7
665.82	55910
667.795	55683.3
669.769	55714
671.742	55684
673.715	55661.3
675.688	55609.3
677.658	55511.3
679.63	55491.3
681.599	55478
683.569	55354
685.538	55281.3
687.506	55130
689.473	55247.3
691.442	55310.7
693.408	55176
695.374	55118
697.338	55192.7
699.303	55255.3
701.267	55293.3
703.231	55240
705.193	55210.7
707.156	55298
709.117	55335.3
711.078	55294.7
713.038	55449.3
714.998	55134.7
716.957	55228.7
718.915	55251.3
720.873	55399.3
722.83	55255.3
724.787	55082
726.743	55142
728.698	55255.3
730.653	55320.7
732.606	55280.7
734.561	55443.3
736.513	55355.3
738.465	55238.7
740.416	55422.7
742.368	55472.7
744.319	55574
746.267	55458.7
748.217	55542.7
750.165	55442
752.114	55501.3
754.06	55747.3
756.007	55700.7
757.953	55768.7
759.899	55980
761.844	55959.3
763.787	56022.7
765.732	56186
767.675	56237.3
769.617	56225.3
771.558	56289.3
773.499	56350
775.44	56594.7
777.381	56514.7
779.319	56707.3
781.258	56665.3
783.196	56901.3
785.134	56940.7
787.071	57016.7
789.007	57108.7
790.942	57097.3
792.877	57188
794.812	57148
796.746	57233.3
798.679	57158
800.611	57324.7
802.543	57317.3
804.475	57290.7
806.405	57247.3
808.335	57400
810.265	57516
812.194	57513.3
814.122	57487.3
816.05	57528.7
817.977	57492
819.903	57686.7
821.83	57826
823.754	57956
825.679	57828
827.604	57873.3
829.526	57710
831.449	57950
833.372	58030.7
835.293	58025.3
837.214	58100
839.134	58074.7
841.054	58165.3
842.973	58174.7
844.892	58462
846.81	58490.7
848.727	58561.3
850.644	58752
852.559	58632
854.476	58763.3
856.39	58688
858.304	58890.3
860.218	58782.7
862.131	58790
864.043	59001.7
865.955	58969.7
867.867	59010.3
869.778	59044.3
871.687	58943
873.597	59114.3
875.505	59146.3
877.414	59197
879.321	59132.3
881.228	59232.3
883.134	59229.7
885.04	59179
886.945	59142.3
888.85	59341.7
890.754	59336.3
892.658	59291
894.56	59393.7
896.463	59410.3
898.364	59401
900.266	59500.3
902.166	59363.7
904.065	59539
905.964	59499
907.863	59631.7
909.761	59531
911.658	59601.7
913.555	59581
915.452	59681
917.347	59731
919.242	59726.3
921.136	59783.7
923.029	59741.7
924.924	59784.3
926.816	59777.7
928.708	59887
930.599	59797
932.49	59842.3
934.379	59826.3
936.269	59983.7
938.158	59979.7
940.046	60079
941.934	60085.7
943.821	60040.3
945.707	60046.3
947.594	60118.3
949.479	60025.7
951.364	60121
953.248	60140.3
955.132	60129
957.014	60134.3
958.897	60256.3
960.779	60159.7
962.66	60082.3
964.54	60180.3
966.421	60233
968.3	60203
970.178	60270.3
972.056	60289
973.934	60363.7
975.811	60250.3
977.688	60356.3
979.563	60351
981.438	60320.3
983.314	60489
985.187	60386.3
987.06	60488.3
988.934	60569.7
990.806	60597
992.677	60537.7
994.548	60658.3
996.419	60544.3
998.288	60561
1000.16	60597.7
1002.03	60695.7
1003.89	60790.3
1005.76	60867.7
1007.63	60772.3
1009.49	60816.3
1011.36	60868.3
1013.23	61025.7
1015.09	60969.7
1016.95	61028.3
1018.82	61034.3
1020.68	61083
1022.54	61091
1024.4	61112.3
1026.26	61183.7
1028.12	61233.7
1029.98	61186.3
1031.84	61310.3
1033.7	61304.3
1035.56	61316.3
1037.42	61337.7
1039.27	61295.7
1041.13	61373.7
1042.99	61347
1044.84	61539
1046.7	61517
1048.55	61453.7
1050.4	61559
1052.26	61469
1054.11	61567.7
1055.96	61720.3
1057.81	61613.7
1059.66	61513.7
1061.51	61632.3
1063.36	61781.7
1065.21	61679
1067.06	61835.7
1068.9	61807.7
1070.75	61759.7
1072.6	61879
1074.44	61953.7
1076.29	61945.7
1078.13	61909.7
1079.97	62023.7
1081.82	61943.7
1083.66	62075
1085.5	62143
1087.34	62085.7
1089.18	62168.3
1091.03	62212.3
1092.86	62184.3
1094.7	62281
1096.54	62319
1098.38	62430.3
1100.22	62416.3
1102.05	62593
1103.89	62493
1105.73	62552.3
1107.56	62555
1109.39	62705.7
1111.23	62764.3
1113.06	62744.3
1114.9	62771.7
1116.73	62887.7
1118.56	62884.3
1120.39	62976.3
1122.22	62879
1124.05	62947
1125.88	62971
1127.71	63029.7
1129.54	63112.3
1131.36	63181
1133.19	63145.7
1135.02	63138.3
1136.84	63197.7
1138.67	63242.3
1140.49	63349
1142.32	63304.3
1144.14	63277.7
1145.96	63282.3
1147.78	63255.7
1149.61	63276.3
1151.43	63309.7
1153.25	63274.3
1155.07	63438.3
1156.89	63326.3
1158.7	63338.3
1160.52	63437
1162.34	63409.7
1164.16	63439
1165.97	63476.3
1167.79	63519
1169.6	63563.7
1171.42	63454.3
1173.23	63550.3
1175.05	63615
1176.86	63535.7
1178.67	63589
1180.48	63669.7
1182.3	63608.3
1184.11	63615
1185.92	63759
1187.72	63840.3
1189.53	63839.7
1191.34	63839
1193.15	63914.3
1194.96	63915
1196.76	63990.3
1198.57	63945.7
1200.37	64153.7
1202.18	64167
1203.98	64181
1205.79	64295
1207.59	64221.7
1209.39	64326.3
1211.19	64341.7
1213	64330.3
1214.8	64516.3
1216.6	64525
1218.4	64540
1220.2	64540
1221.99	64540
1223.79	64540
1225.59	64540
1227.39	64540
1229.18	64540
1230.98	64540
1232.77	64540
1234.57	64540
1236.36	64540
1238.15	64540
1239.95	64540
1241.74	64540
1243.53	64540
1245.32	64540
1247.11	64540
1248.9	64540
1250.69	64540
1252.48	64540
1254.27	64540
1256.06	64540
1257.84	64540
1259.63	64540
1261.42	64540
1263.2	64540
1264.99	64540
1266.77	64540
1268.55	64540
1270.34	64540
1272.12	64540
1273.9	64540
1275.68	64540
1277.46	64540
1279.24	64540
1281.02	64540
1282.8	64540
1284.58	64540
1286.36	64540
1288.14	64540
1289.91	64540
1291.69	64540
1293.46	64540
1295.24	64540
1297.01	64540
1298.79	64540
1300.56	64540
1302.33	64540
1304.11	64540
1305.88	64540
1307.65	64540
1309.42	64540
1311.19	64540
1312.96	64540
1314.73	64540
1316.49	64540
1318.26	64540
1320.03	64540
1321.8	64540
1323.56	64540
1325.33	64540
1327.09	64540
1328.86	64540
1330.62	64540
1332.38	64540
1334.15	64540
1335.91	64540
1337.67	64540
1339.43	64540
1341.19	64540
1342.95	64540
1344.71	64540
1346.47	64540
1348.23	64540
1349.98	64540
1351.74	64540
1353.5	64540
1355.25	64540
1357.01	64540
1358.76	64540
1360.52	64540
1362.27	64540
1364.02	64540
1365.77	64540
1367.53	64540
1369.28	64540
1371.03	64540
1372.78	64540
1374.53	64540
1376.28	64540
1378.03	64540
1379.77	64540
1381.52	64540
1383.27	64540
1385.01	64540
1386.76	64540
1388.51	64540
1390.25	64540
1391.99	64540
1393.74	64540
1395.48	64540
1397.22	64540
1398.96	64540
1400.7	64540
1402.44	64540
1404.19	64540
1405.92	64540
1407.66	64540
1409.4	64540
1411.14	64540
1412.88	64540
1414.61	64540
1416.35	64540
1418.09	64540
1419.82	64540
1421.56	64540
1423.29	64540
1425.02	64540
1426.76	64540
1428.49	64540
1430.22	64540
1431.95	64540
1433.68	64540
1435.41	64540
1437.14	64540
1438.87	64540
1440.6	64540
1442.33	64540
1444.05	64540
1445.78	64540
1447.51	64540
1449.23	64540
1450.96	64540
1452.68	64540
1454.4	64540
1456.13	64540
1457.85	64540
1459.57	64540
1461.29	64540
1463.02	64540
1464.74	64540
1466.46	64540
1468.18	64540
1469.89	64540
1471.61	64540
1473.33	64540
1475.05	64540
1476.76	64540
1478.48	64540
1480.2	64540
1481.91	64540
1483.63	64540
1485.34	64540
1487.05	64540
1488.77	64540
1490.48	64540
1492.19	64540
1493.9	64540
1495.61	64540
1497.32	64540
1499.03	64540
1500.74	64540
1502.45	64540
1504.16	64540
1505.86	64540
1507.57	64540
1509.28	64540
1510.98	64540
1512.69	64540
1514.39	64540
1516.1	64540
1517.8	64540
1519.5	64540
1521.21	64540
1522.91	64540
1524.61	64540
1526.31	64540
1528.01	64540
1529.71	64540
1531.41	64540
1533.11	64540
1534.8	64540
1536.5	64540
1538.2	64540
1539.9	64540
1541.59	64540
1543.29	64540
1544.98	64540
1546.68	64540
1548.37	64540
1550.06	64540
1551.76	64540
1553.45	64540
1555.14	64540
1556.83	64540
1558.52	64540
1560.21	64540
1561.9	64540
1563.59	64540
1565.28	64540
1566.96	64540
1568.65	64540
1570.34	64540
1572.02	64540
1573.71	64540
1575.39	64540
1577.08	64540
1578.76	64540
1580.44	64540
1582.13	64540
1583.81	64540
1585.49	64540
1587.17	64540
1588.85	64540
1590.53	64540
1592.21	64540
1593.89	64540
1595.57	64540
1597.25	64540
1598.92	64540
1600.6	64540
1602.28	64540
1603.95	64540
1605.63	64540
1607.3	64540
1608.98	64540
1610.65	64540
1612.32	64540
1614	64540
1615.67	64540
1617.34	64540
1619.01	64540
1620.68	64540
1622.35	64540
1624.02	64540
1625.69	64540
1627.36	64540
1629.02	64540
1630.69	64540
1632.36	64540
1634.02	64540
1635.69	64540
1637.35	64540
1639.02	64540
1640.68	64540
1642.34	64540
1644.01	64540
1645.67	64540
1647.33	64540
1648.99	64540
1650.65	64540
1652.31	64540
1653.97	64540
1655.63	64540
1657.29	64540
1658.95	64540
1660.6	64540
1662.26	64540
1663.92	64540
1665.57	64540
1667.23	64540
1668.88	64540
1670.54	64540
1672.19	64540
1673.84	64540
1675.5	64540
1677.15	64540
1678.8	64540
1680.45	64540
1682.1	64540
1683.75	64540
1685.4	64540
1687.05	64540
1688.7	64540
1690.34	64540
1691.99	64540
1693.64	64540
1695.28	64540
1696.93	64540
1698.57	64540
1700.22	64540
1701.86	64540
1703.51	64540
1705.15	64540
1706.79	64540
1708.43	64540
1710.08	64540
1711.72	64540
1713.36	64540
1715	64540
1716.64	64540
1718.27	64540
1719.91	64540
1721.55	64540
1723.19	64540
1724.82	64540
1726.46	64540
1728.09	64540
1729.73	64540
1731.36	64540
1733	64540
1734.63	64540
1736.26	64540
1737.9	64540
1739.53	64540
1741.16	64540
1742.79	64540
1744.42	64540
1746.05	64540
1747.68	64540
1749.31	64540
1750.93	64540
1752.56	64540
1754.19	64540
1755.82	64540
1757.44	64540
1759.07	64540
1760.69	64540
1762.32	64540
1763.94	64540
1765.56	64540
1767.19	64540
1768.81	64540
1770.43	64540
1772.05	64540
1773.67	64540
1775.29	64540
1776.91	64540
1778.53	64540
1780.15	64540
1781.77	64540
1783.39	64540
1785	64540
1786.62	64540
1788.23	64540
1789.85	64540
1791.46	64540
1793.08	64540
1794.69	64540
1796.31	64540
1797.92	64540
1799.53	64540
1801.14	64540
1802.75	64540
1804.36	64540
1805.98	64540
1807.58	64540
1809.19	64540
1810.8	64540
1812.41	64540
1814.02	64540
1815.62	64540
1817.23	64540
1818.84	64540
1820.44	64540
1822.05	64540
1823.65	64540
1825.26	64540
1826.86	64540
1828.46	64540
1830.06	64540
1831.67	64540
1833.27	64540
1834.87	64540
1836.47	64540
1838.07	64540
1839.67	64540
1841.27	64540
1842.86	64540
1844.46	64540
1846.06	64540
1847.66	64540
1849.25	64540
1850.85	64540
1852.44	64540
1854.04	64540
1855.63	64540
1857.22	64540
1858.82	64540
1860.41	64540
1862	64540
1863.59	64540
1865.18	64540
1866.77	64540
1868.36	64540
1869.95	64540
1871.54	64540
1873.13	64540
1874.72	64540
1876.3	64540
1877.89	64540
1879.48	64540
1881.06	64540
1882.65	64540
1884.23	64540
1885.82	64540
1887.4	64540
1888.98	64540
1890.57	64540
1892.15	64540
1893.73	64540
1895.31	64540
1896.89	64540
1898.47	64540
